-17.66
-16.239
-14.881
-13.586
-12.351
-11.174
-10.051
-8.978
-7.952
-6.969
-6.023
-5.111
-4.228
-3.37
-2.532
-1.709
-0.898
-0.094
0.706
1.505
2.306
3.111
3.92
4.734
5.55
6.365
7.174
7.972
8.751
9.504
10.221
10.895
11.516
12.078
12.571
12.986
13.311
13.534
13.643
13.626
13.472
13.172
12.715
12.094
11.307
10.353
9.232
7.939
6.462
4.786
2.901
0.798
-1.527
-4.07
-6.827
-9.782
-12.905
-16.163
-19.517
-22.928
-26.37
-29.809
-33.208
-36.52
-39.675
-42.605
-45.249
-47.548
-49.459
-50.967
-52.061
-52.769
-53.155
-53.272
-53.201
-53.052
-52.919
-52.941
-53.264
-54.005
-55.366
-57.608
-60.893
-65.284
-70.635
-76.51
-82.459
-88.077
-92.815
-96.075
-97.412
-96.647
-94.302
-91.566
-89.734
-89.938
-93.08
-99.878
-110.686
-125.127
-141.451
-156.542
-166.574
-167.667
-156.435
-129.687
-84.781
-20.248
63.526
163.804
276.004
394.512
513.267
625.361
723.62
801.209
852.446
874.057
864.775
824.969
756.684
663.924
552.411
429.395
302.575
178.512
63.194
-38.318
-122.431
-186.882
-231.465
-258.241
-270.235
-270.303
-261.703
-247.341
-229.634
-211.201
-193.42
-176.2
-159.255
-142.42
-125.598
-109.429
-94.57
-80.772
-68.199
-57.5
-49.018
-43.013
-39.201
-36.324
-33.267
-29.709
-25.42
-20.262
-14.333
-7.614
-0.446
6.222
11.656
15.564
17.862
18.764
18.604
17.587
16.027
14.441
13.21
12.611
12.868
14.009
16.01
18.88
22.566
26.996
32.132
37.913
44.258
51.11
58.387
66.011
73.935
82.098
90.432
98.861
107.284
115.627
123.857
131.945
139.88
147.649
155.234
162.632
169.863
176.941
183.872
190.658
197.279
203.719
209.97
216.027
221.898
227.59
233.1
238.422
243.549
248.468
253.175
257.676
261.973
266.07
269.979
273.709
277.282
280.739
284.111
287.418
290.676
293.871
296.984
299.999
302.897
305.657
308.239
310.572
312.57
314.152
315.237
315.747
315.599
314.677
312.876
310.103
306.277
301.36
295.325
288.148
279.812
270.307
259.656
247.93
235.235
221.675
207.364
192.414
176.948
161.131
145.132
129.12
113.262
97.686
82.509
67.853
53.834
40.572
28.154
16.62
5.979
-3.773
-12.647
-20.656
-27.826
-34.224
-39.932
-45.044
-49.662
-53.86
-57.706
-61.273
-64.633
-67.87
-71.051
-74.211
-77.363
-80.518
-83.68
-86.859
-90.057
-93.247
-96.395
-99.455
-102.377
-105.13
-107.694
-110.048
-112.172
-114.044
-115.65
-116.992
-118.086
-118.946
-119.587
-120.02
-120.261
-120.337
-120.281
-120.129
-119.92
-119.68
-119.431
-119.193
-118.983
-118.816
-118.703
-118.649
-118.653
-118.715
-118.838
-119.023
-119.273
-119.585
-119.954
-120.373
-120.837
-121.339
-121.875
-122.439
-123.026
-123.633
-124.256
-124.893
-125.544
-126.204
-126.871
-127.539
-128.206
-128.865
-129.514
-130.146
-130.758
-131.345
-131.904
-132.431
-132.926
-133.384
-133.803
-134.181
-134.515
-134.801
-135.037
-135.22
-135.346
-135.412
-135.415
-135.354
-135.227
-135.032
-134.771
-134.443
-134.049
-133.591
-133.07
-132.483
-131.831
-131.111
-130.32
-129.455
-128.514
-127.494
-126.396
-125.219
-123.965
-122.637
-121.237
-119.764
-118.217
-116.591
-114.884
-113.098
-111.24
-109.321
-107.357
-105.372
-103.39
-101.438
-99.537
-97.703
-95.941
-94.249
-92.623
-91.056
-89.553
-88.128
-86.794
-85.559
-84.426
-83.389
-82.435
-81.537
-80.664
-79.777
-78.854
-77.887
-76.893
-75.912
-74.994
-74.203
-73.581
-73.152
-72.943
-72.975
-73.284
-73.906
-74.887
-76.279
-78.143
-80.546
-83.532
-87.11
-91.245
-95.867
-100.88
-106.165
-111.63
-117.187
-122.752
-128.244
-133.564
-138.61
-143.29
-147.503
-151.154
-154.168
-156.493
-158.121
-159.113
-159.531
-159.486
-159.141
-158.638
-158.153
-157.862
-157.894
-158.454
-159.821
-162.154
-165.494
-169.676
-174.225
-178.652
-182.56
-185.405
-186.586
-185.733
-182.782
-178.356
-173.809
-170.532
-169.623
-171.937
-178.102
-188.213
-201.557
-216.085
-228.402
-234.599
-230.981
-214.386
-181.884
-131.321
-61.828
25.692
128.094
240.645
357.963
474.26
582.895
677.211
750.989
799.023
818.458
808.306
768.855
702.031
611.707
503.154
383.108
258.933
136.891
22.571
-79.091
-164.44
-231.127
-278.338
-307.388
-320.81
-321.043
-310.687
-292.383
-268.759
-242.589
-216.085
-190.283
-165.647
-142.791
-122.574
-105.895
-93.036
-83.559
-76.893
-72.682
-70.687
-70.367
-70.551
-69.96
-67.932
-64.378
-59.537
-53.787
-47.391
-40.773
-34.792
-30.213
-27.379
-26.333
-26.793
-28.328
-30.602
-33.221
-35.629
-37.42
-38.346
-38.238
-37.108
-35.009
-31.947
-27.987
-23.219
-17.701
-11.505
-4.711
2.628
10.42
18.55
26.923
35.424
43.968
52.496
60.949
69.285
77.485
85.539
93.446
101.221
108.863
116.376
123.773
131.058
138.239
145.325
152.311
159.199
165.994
172.691
179.292
185.805
192.224
198.548
204.776
210.887
216.87
222.718
228.412
233.944
239.318
244.543
249.647
254.668
259.617
264.489
269.267
273.907
278.359
282.567
286.448
289.943
292.998
295.558
297.59
299.062
299.917
300.097
299.526
298.108
295.789
292.536
288.33
283.196
277.173
270.321
262.743
254.53
245.755
236.489
226.782
216.681
206.255
195.577
184.729
173.813
162.91
152.088
141.414
130.924
120.637
110.559
100.658
90.912
81.317
71.875
62.603
53.526
44.655
36.004
27.589
19.411
11.475
3.789
-3.65
-10.829
-17.73
-24.327
-30.585
-36.47
-41.961
-47.045
-51.716
-55.976
-59.827
-63.276
-66.34
-69.032
-71.362
-73.346
-74.991
-76.313
-77.33
-78.063
-78.533
-78.767
-78.787
-78.614
-78.272
-77.78
-77.158
-76.423
-75.592
-74.679
-73.701
-72.673
-71.612
-70.533
-69.452
-68.382
-67.337
-66.33
-65.372
-64.472
-63.638
-62.876
-62.194
-61.595
-61.084
-60.663
-60.334
-60.098
-59.955
-59.906
-59.95
-60.083
-60.305
-60.611
-60.998
-61.462
-61.998
-62.601
-63.268
-63.992
-64.768
-65.592
-66.459
-67.363
-68.299
-69.262
-70.246
-71.246
-72.256
-73.271
-74.288
-75.3
-76.304
-77.297
-78.275
-79.235
-80.175
-81.091
-81.981
-82.843
-83.674
-84.473
-85.237
-85.963
-86.652
-87.299
-87.905
-88.467
-88.985
-89.456
-89.88
-90.254
-90.578
-90.85
-91.069
-91.231
-91.336
-91.38
-91.362
-91.281
-91.132
-90.916
-90.628
-90.266
-89.828
-89.311
-88.712
-88.029
-87.257
-86.395
-85.44
-84.39
-83.244
-82.001
-80.66
-79.222
-77.686
-76.053
-74.326
-72.506
-70.595
-68.597
-66.515
-64.355
-62.121
-59.819
-57.458
-55.047
-52.597
-50.121
-47.631
-45.141
-42.668
-40.227
-37.835
-35.507
-33.258
-31.1
-29.049
-27.122
-25.335
-23.707
-22.251
-20.982
-19.915
-19.061
-18.431
-18.033
-17.867
-17.935
-18.24
-18.789
-19.6
-20.69
-22.066
-23.734
-25.695
-27.941
-30.464
-33.241
-36.229
-39.389
-42.673
-46.04
-49.462
-52.898
-56.3
-59.609
-62.743
-65.624
-68.191
-70.385
-72.169
-73.529
-74.461
-75
-75.212
-75.177
-75.001
-74.803
-74.695
-74.818
-75.299
-76.307
-78.099
-80.855
-84.65
-89.413
-94.812
-100.441
-105.958
-110.884
-114.619
-116.763
-117.072
-115.786
-113.91
-112.475
-112.4
-114.607
-119.685
-127.879
-139.056
-151.953
-163.955
-172.091
-173.077
-163.666
-141.292
-103.482
-48.382
24.255
112.962
214.833
325.554
440.18
553.526
659.273
750.996
822.938
870.247
890.05
881.269
843.883
779.35
691.333
584.861
466.233
342.54
219.777
103.289
-1.703
-91.124
-162.418
-214.335
-247.572
-264.198
-265.962
-254.976
-234.328
-207.123
-176.414
-145.108
-114.978
-87.185
-63.43
-45.075
-32.39
-25.163
-22.57
-23.241
-26.237
-30.591
-34.611
-36.843
-36.583
-33.516
-27.948
-20.678
-12.294
-3.532
4.44
10.789
15.087
17.132
17.161
15.613
12.839
9.333
5.718
2.389
-0.371
-2.355
-3.524
-3.829
-3.208
-1.696
0.657
3.822
7.767
12.468
17.898
23.973
30.595
37.67
45.108
52.844
60.804
68.892
77.032
85.157
93.222
101.211
109.1
116.864
124.491
131.977
139.332
146.574
153.717
160.766
167.73
174.616
181.435
188.208
194.941
201.633
208.28
214.871
221.392
227.831
234.166
240.369
246.412
252.266
257.902
263.297
268.423
273.249
277.751
281.9
285.669
289.03
291.953
294.41
296.381
297.851
298.808
299.246
299.158
298.549
297.433
295.825
293.738
291.178
288.134
284.603
280.585
276.084
271.107
265.653
259.702
253.245
246.279
238.799
230.807
222.28
213.174
203.462
193.131
182.192
170.691
158.675
146.186
133.287
120.049
106.57
92.976
79.375
65.851
52.495
39.393
26.657
14.433
2.836
-8.045
-18.147
-27.444
-35.914
-43.534
-50.318
-56.307
-61.568
-66.204
-70.293
-73.882
-77.029
-79.788
-82.234
-84.471
-86.577
-88.604
-90.596
-92.577
-94.572
-96.613
-98.697
-100.8
-102.882
-104.883
-106.769
-108.53
-110.152
-111.628
-112.945
-114.076
-115.015
-115.772
-116.356
-116.777
-117.044
-117.161
-117.148
-117.039
-116.871
-116.686
-116.512
-116.367
-116.268
-116.228
-116.259
-116.371
-116.567
-116.839
-117.188
-117.611
-118.111
-118.687
-119.338
-120.056
-120.832
-121.66
-122.533
-123.446
-124.393
-125.369
-126.37
-127.394
-128.437
-129.501
-130.582
-131.678
-132.785
-133.899
-135.016
-136.133
-137.247
-138.354
-139.451
-140.535
-141.605
-142.66
-143.699
-144.722
-145.727
-146.714
-147.684
-148.636
-149.571
-150.488
-151.387
-152.27
-153.136
-153.986
-154.82
-155.637
-156.439
-157.225
-157.994
-158.747
-159.482
-160.198
-160.896
-161.573
-162.229
-162.862
-163.472
-164.055
-164.612
-165.14
-165.637
-166.101
-166.529
-166.919
-167.269
-167.574
-167.832
-168.04
-168.194
-168.291
-168.328
-168.3
-168.206
-168.041
-167.802
-167.487
-167.092
-166.616
-166.054
-165.404
-164.665
-163.835
-162.912
-161.895
-160.784
-159.579
-158.28
-156.888
-155.405
-153.834
-152.176
-150.435
-148.615
-146.721
-144.757
-142.73
-140.645
-138.51
-136.332
-134.121
-131.888
-129.645
-127.403
-125.177
-122.98
-120.828
-118.736
-116.718
-114.787
-112.956
-111.237
-109.644
-108.19
-106.89
-105.757
-104.802
-104.037
-103.472
-103.114
-102.97
-103.041
-103.324
-103.82
-104.528
-105.461
-106.629
-108.038
-109.694
-111.596
-113.735
-116.098
-118.664
-121.397
-124.256
-127.194
-130.167
-133.14
-136.077
-138.935
-141.665
-144.193
-146.44
-148.343
-149.838
-150.883
-151.465
-151.578
-151.249
-150.549
-149.545
-148.327
-147.019
-145.72
-144.554
-143.669
-143.171
-143.258
-144.197
-146.142
-149.157
-153.103
-157.562
-162.12
-166.425
-169.962
-172.167
-172.608
-171.022
-167.871
-164.28
-161.292
-159.835
-160.549
-163.768
-169.776
-178.377
-187.95
-195.719
-198.575
-193.199
-177.094
-148.287
-104.432
-44.043
32.575
123.542
225.396
333.541
443.722
551.232
649.813
733.399
796.644
835.24
847.113
831.558
788.332
718.923
627.24
518.591
399.554
276.995
156.514
43.505
-56.759
-140.288
-204.682
-249.498
-276.217
-286.995
-283.704
-268.815
-245.492
-217.106
-186.935
-157.122
-128.762
-102.89
-80.945
-64.121
-52.748
-46.278
-43.597
-43.83
-46.415
-50.514
-54.668
-57.373
-57.78
-55.721
-51.599
-45.978
-39.287
-32.15
-25.579
-20.459
-17.257
-16.108
-16.746
-18.734
-21.708
-25.174
-28.517
-31.301
-33.259
-34.229
-34.21
-33.225
-31.264
-28.388
-24.689
-20.223
-15.051
-9.22
-2.769
4.212
11.607
19.295
27.151
35.091
43.057
50.996
58.863
66.629
74.271
81.788
89.188
96.47
103.64
110.702
117.659
124.527
131.322
138.063
144.77
151.446
158.074
164.635
171.11
177.477
183.727
189.846
195.808
201.595
207.189
212.582
217.783
222.807
227.656
232.344
236.884
241.296
245.631
249.924
254.19
258.441
262.663
266.831
270.928
274.924
278.78
282.447
285.855
288.917
291.561
293.703
295.25
296.107
296.145
295.254
293.359
290.385
286.289
281.056
274.678
267.162
258.541
248.848
238.129
226.467
213.94
200.648
186.711
172.251
157.425
142.392
127.299
112.303
97.54
83.11
69.106
55.606
42.672
30.378
18.804
7.985
-2.049
-11.289
-19.746
-27.431
-34.381
-40.659
-46.34
-51.523
-56.288
-60.689
-64.764
-68.551
-72.087
-75.425
-78.628
-81.726
-84.745
-87.704
-90.612
-93.488
-96.333
-99.125
-101.821
-104.366
-106.722
-108.872
-110.813
-112.541
-114.056
-115.346
-116.405
-117.241
-117.868
-118.296
-118.538
-118.599
-118.495
-118.256
-117.922
-117.536
-117.133
-116.737
-116.365
-116.031
-115.752
-115.539
-115.4
-115.334
-115.342
-115.426
-115.59
-115.837
-116.168
-116.579
-117.061
-117.606
-118.208
-118.861
-119.56
-120.298
-121.071
-121.875
-122.706
-123.564
-124.445
-125.346
-126.261
-127.185
-128.114
-129.044
-129.969
-130.886
-131.79
-132.679
-133.55
-134.4
-135.23
-136.036
-136.817
-137.574
-138.304
-139.01
-139.69
-140.346
-140.978
-141.587
-142.175
-142.744
-143.294
-143.827
-144.345
-144.849
-145.34
-145.82
-146.291
-146.753
-147.208
-147.656
-148.1
-148.54
-148.977
-149.411
-149.843
-150.273
-150.7
-151.124
-151.545
-151.961
-152.37
-152.771
-153.163
-153.542
-153.906
-154.251
-154.576
-154.875
-155.147
-155.386
-155.59
-155.754
-155.876
-155.951
-155.976
-155.947
-155.861
-155.714
-155.502
-155.221
-154.869
-154.441
-153.934
-153.345
-152.672
-151.911
-151.061
-150.12
-149.085
-147.955
-146.728
-145.403
-143.979
-142.455
-140.831
-139.109
-137.287
-135.37
-133.357
-131.254
-129.063
-126.788
-124.435
-122.006
-119.507
-116.944
-114.323
-111.651
-108.936
-106.186
-103.411
-100.623
-97.836
-95.063
-92.319
-89.616
-86.968
-84.389
-81.895
-79.502
-77.224
-75.078
-73.078
-71.24
-69.583
-68.122
-66.872
-65.841
-65.035
-64.459
-64.12
-64.019
-64.163
-64.551
-65.184
-66.063
-67.191
-68.566
-70.187
-72.048
-74.132
-76.421
-78.894
-81.521
-84.279
-87.14
-90.07
-93.034
-95.982
-98.868
-101.653
-104.302
-106.796
-109.104
-111.166
-112.924
-114.333
-115.383
-116.133
-116.617
-116.791
-116.711
-116.521
-116.507
-117.161
-118.767
-121.301
-124.758
-129.171
-134.402
-140.249
-145.991
-150.2
-151.974
-151.085
-147.504
-141.538
-133.632
-124.15
-114.472
-107.186
-104.143
-106.346
-114.127
-126.767
-143.479
-163.42
-184.188
-201.798
-212.481
-212.712
-199.715
-171.949
-127.658
-65.535
13.889
108.305
214.205
327.012
441.906
553.968
656.985
744.686
811.574
853.247
867.226
852.491
809.193
739.179
646.498
536.713
416.639
293.347
172.911
61.133
-36.999
-117.898
-179.415
-221.551
-246.306
-256.317
-254.204
-242.984
-225.455
-204.473
-182.896
-162.045
-142.162
-123.412
-105.993
-90.448
-77.541
-67.174
-58.723
-52.188
-47.658
-45.087
-44.191
-43.744
-42.396
-39.642
-35.379
-29.579
-22.455
-14.162
-5.078
3.759
11.469
17.666
22.199
25.24
27.079
27.889
27.977
27.836
27.804
28.088
28.801
29.902
31.396
33.344
35.765
38.687
42.135
46.11
50.624
55.679
61.239
67.26
73.692
80.488
87.627
95.086
102.845
110.889
119.177
127.665
136.305
145.017
153.74
162.434
171.064
179.616
188.09
196.479
204.783
213.01
221.156
229.216
237.181
245.032
252.761
260.365
267.847
275.221
282.493
289.654
296.696
303.6
310.342
316.898
323.238
329.322
335.114
340.586
345.708
350.462
354.824
358.766
362.257
365.262
367.753
369.712
371.12
371.962
372.23
371.923
371.053
369.647
367.724
365.29
362.349
358.891
354.915
350.423
345.416
339.896
333.864
327.32
320.273
312.741
304.73
296.238
287.243
277.704
267.607
256.971
245.824
234.222
222.225
209.897
197.325
184.614
171.86
159.155
146.577
134.179
122.039
110.252
98.923
88.188
78.145
68.852
60.357
52.682
45.829
39.786
34.504
29.897
25.897
22.448
19.509
17.061
15.063
13.455
12.171
11.126
10.255
9.516
8.867
8.275
7.728
7.222
6.785
6.473
6.324
6.352
6.564
6.947
7.495
8.213
9.1
10.157
11.379
12.756
14.282
15.952
17.749
19.649
21.615
23.598
25.559
27.471
29.313
31.071
32.734
34.288
35.727
37.053
38.262
39.354
40.325
41.17
41.887
42.48
42.955
43.321
43.585
43.754
43.834
43.833
43.754
43.605
43.389
43.107
42.764
42.365
41.915
41.422
40.892
40.332
39.749
39.149
38.541
37.93
37.322
36.722
36.135
35.565
35.017
34.494
34
33.538
33.109
32.716
32.361
32.044
31.767
31.528
31.327
31.164
31.038
30.946
30.886
30.855
30.852
30.874
30.917
30.977
31.052
31.136
31.227
31.318
31.407
31.489
31.558
31.611
31.644
31.653
31.635
31.586
31.505
31.388
31.235
31.045
30.817
30.552
30.252
29.917
29.55
29.155
28.736
28.297
27.844
27.383
26.922
26.467
26.027
25.61
25.227
24.888
24.601
24.378
24.229
24.165
24.196
24.333
24.586
24.967
25.483
26.145
26.961
27.94
29.088
30.41
31.913
33.598
35.468
37.523
39.762
42.183
44.781
47.551
50.486
53.577
56.813
60.182
63.671
67.264
70.942
74.689
78.484
82.304
86.129
89.933
93.693
97.383
100.977
104.448
107.767
110.908
113.843
116.543
118.979
121.124
122.949
124.426
125.53
126.236
126.519
126.358
125.734
124.63
123.034
120.937
118.329
115.205
111.563
107.4
102.718
97.525
91.829
85.645
78.99
71.889
64.371
56.468
48.211
39.627
30.745
21.597
12.215
2.638
-7.089
-16.912
-26.772
-36.594
-46.305
-55.828
-65.092
-74.031
-82.581
-90.679
-98.259
-105.244
-111.555
-117.118
-121.864
-125.734
-128.694
-130.747
-131.922
-132.289
-131.925
-130.891
-129.277
-127.185
-124.717
-122.049
-119.342
-116.699
-114.355
-112.391
-110.818
-109.843
-109.232
-109.15
-109.624
-109.751
-108.931
-104.19
-95.565
-81.631
-50.484
-28.544
-60.435
-90.212
-47.352
2.51
-6.693
-32.44
-40.947
-44.354
-44.19
-34.475
-13.95
19.643
68.515
134.131
216.463
313.237
420.796
534.277
648.278
756.844
853.462
931.557
985.152
1009.258
999.88
956.787
883.599
784.3
664.059
523.522
357.758
169.77
-29.961
-220.359
-370.43
-463.704
-499.905
-493.096
-470.376
-448.266
-431.611
-418.907
-401.844
-377.913
-350.071
-321.592
-297.151
-279.235
-267.498
-260.975
-258.101
-257.439
-258.505
-261.003
-264.249
-266.957
-267.679
-265.709
-261.099
-254.315
-245.776
-235.776
-224.758
-213.627
-203.555
-195.225
-188.788
-184.083
-180.757
-178.53
-177.167
-176.232
-175.149
-173.545
-171.214
-168.061
-164.125
-159.385
-153.756
-147.239
-139.885
-131.742
-122.888
-113.385
-103.279
-92.656
-81.621
-70.266
-58.688
-46.956
-35.127
-23.272
-11.463
0.226
11.707
22.919
33.815
44.358
54.532
64.333
73.756
82.811
91.518
99.887
107.931
115.654
123.052
130.129
136.893
143.355
149.537
155.451
161.097
166.476
171.581
176.4
180.92
185.121
188.98
192.474
195.588
198.304
200.614
202.504
203.957
204.952
205.466
205.477
204.971
203.938
202.37
200.27
197.646
194.51
190.881
186.769
182.18
177.112
171.551
165.488
158.91
151.816
144.218
136.127
127.555
118.509
108.996
99.012
88.545
77.577
66.085
54.062
41.522
28.504
15.072
1.304
-12.708
-26.883
-41.156
-55.465
-69.751
-83.953
-98.01
-111.848
-125.383
-138.521
-151.155
-163.197
-174.583
-185.283
-195.301
-204.666
-213.432
-221.641
-229.328
-236.517
-243.228
-249.477
-255.282
-260.666
-265.66
-270.31
-274.68
-278.826
-282.79
-286.591
-290.225
-293.668
-296.88
-299.827
-302.484
-304.834
-306.876
-308.613
-310.054
-311.212
-312.102
-312.729
-313.09
-313.18
-313.001
-312.562
-311.887
-311.004
-309.955
-308.774
-307.497
-306.154
-304.765
-303.348
-301.915
-300.473
-299.025
-297.576
-296.135
-294.711
-293.314
-291.951
-290.626
-289.34
-288.094
-286.885
-285.711
-284.568
-283.453
-282.366
-281.304
-280.269
-279.259
-278.276
-277.318
-276.383
-275.468
-274.569
-273.683
-272.805
-271.931
-271.055
-270.176
-269.288
-268.389
-267.476
-266.547
-265.6
-264.631
-263.639
-262.622
-261.578
-260.504
-259.399
-258.262
-257.09
-255.882
-254.637
-253.355
-252.034
-250.673
-249.273
-247.833
-246.353
-244.833
-243.272
-241.671
-240.028
-238.346
-236.623
-234.86
-233.057
-231.216
-229.336
-227.418
-225.462
-223.467
-221.433
-219.361
-217.25
-215.099
-212.909
-210.68
-208.412
-206.105
-203.761
-201.378
-198.96
-196.505
-194.015
-191.492
-188.935
-186.346
-183.726
-181.076
-178.398
-175.692
-172.96
-170.203
-167.422
-164.62
-161.798
-158.958
-156.102
-153.233
-150.351
-147.46
-144.563
-141.661
-138.759
-135.859
-132.963
-130.074
-127.195
-124.328
-121.476
-118.638
-115.818
-113.015
-110.231
-107.466
-104.721
-101.995
-99.289
-96.602
-93.933
-91.283
-88.65
-86.034
-83.432
-80.845
-78.268
-75.702
-73.143
-70.588
-68.034
-65.479
-62.919
-60.351
-57.77
-55.173
-52.554
-49.911
-47.238
-44.532
-41.789
-39.005
-36.178
-33.305
-30.385
-27.417
-24.399
-21.333
-18.218
-15.057
-11.851
-8.603
-5.316
-1.994
1.358
4.736
8.132
11.541
14.953
18.356
21.74
25.092
28.397
31.642
34.81
37.886
40.854
43.703
46.418
48.985
51.391
53.618
55.652
57.48
59.09
60.472
61.616
62.515
63.164
63.568
63.726
63.641
63.307
62.71
61.84
60.692
59.265
57.563
55.597
53.378
50.932
48.298
45.518
42.641
39.707
36.747
33.802
30.92
28.165
25.623
23.37
21.47
19.973
18.909
18.297
18.14
18.406
19.038
19.958
21.056
22.229
23.364
24.323
24.99
25.177
24.616
23.139
20.692
17.387
13.608
9.76
6.169
3.322
1.818
2.035
4.163
7.794
11.774
15.015
16.56
15.487
11.154
3.237
-8.065
-21.254
-33.46
-41.544
-42.108
-31.883
-8.132
31.834
89.753
165.469
256.929
360.684
472.061
585.78
696.106
796.204
879.584
940.901
976.219
983.597
962.523
913.744
839.73
745.034
635.413
517.339
397.221
280.408
172.017
76.606
-2.559
-63.643
-106.603
-132.907
-144.46
-143.002
-130.879
-110.934
-86.145
-59.404
-32.542
-6.516
17.655
38.572
55.12
66.934
74.412
78.468
79.767
78.687
75.945
72.904
70.936
70.84
72.823
76.541
81.534
87.482
93.832
99.645
104.127
106.845
107.668
106.867
104.851
101.971
98.724
95.688
93.263
91.704
91.153
91.613
93.076
95.54
98.935
103.163
108.155
113.85
120.204
127.156
134.604
142.411
150.437
158.578
166.769
174.96
183.108
191.171
199.118
206.943
214.662
222.277
229.783
237.174
244.447
251.622
258.734
265.814
272.891
279.979
287.084
294.202
301.324
308.425
315.466
322.405
329.205
335.844
342.315
348.608
354.711
360.606
366.273
371.707
376.909
381.868
386.574
391.018
395.207
399.17
402.958
406.607
410.121
413.485
416.668
419.644
422.378
424.827
426.937
428.634
429.863
430.589
430.785
430.409
429.398
427.662
425.092
421.608
417.164
411.728
405.285
397.831
389.385
379.995
369.731
358.672
346.86
334.324
321.102
307.26
292.897
278.135
263.117
247.971
232.822
217.81
203.059
188.675
174.728
161.262
148.308
135.906
124.136
113.078
102.787
93.292
84.596
76.69
69.546
63.127
57.364
52.155
47.414
43.078
39.112
35.494
32.199
29.183
26.38
23.735
21.208
18.77
16.401
14.074
11.778
9.517
7.33
5.273
3.389
1.696
0.196
-1.115
-2.237
-3.162
-3.881
-4.402
-4.736
-4.892
-4.879
-4.703
-4.373
-3.915
-3.368
-2.777
-2.176
-1.588
-1.031
-0.52
-0.067
0.312
0.613
0.837
0.984
1.056
1.048
0.957
0.784
0.534
0.216
-0.162
-0.594
-1.074
-1.596
-2.155
-2.745
-3.363
-4.007
-4.677
-5.37
-6.083
-6.812
-7.553
-8.303
-9.058
-9.814
-10.567
-11.314
-12.052
-12.777
-13.489
-14.186
-14.865
-15.525
-16.166
-16.788
-17.39
-17.973
-18.538
-19.086
-19.618
-20.138
-20.645
-21.144
-21.635
-22.121
-22.604
-23.087
-23.573
-24.063
-24.559
-25.065
-25.581
-26.112
-26.658
-27.223
-27.807
-28.414
-29.046
-29.705
-30.392
-31.109
-31.858
-32.64
-33.456
-34.308
-35.195
-36.12
-37.081
-38.079
-39.113
-40.182
-41.285
-42.422
-43.59
-44.788
-46.012
-47.262
-48.534
-49.826
-51.133
-52.452
-53.779
-55.111
-56.441
-57.767
-59.083
-60.384
-61.665
-62.92
-64.146
-65.336
-66.485
-67.588
-68.638
-69.631
-70.56
-71.419
-72.203
-72.907
-73.524
-74.051
-74.482
-74.814
-75.042
-75.162
-75.172
-75.068
-74.848
-74.51
-74.054
-73.477
-72.782
-71.969
-71.04
-70
-68.85
-67.598
-66.247
-64.804
-63.275
-61.667
-59.989
-58.248
-56.456
-54.623
-52.758
-50.877
-48.994
-47.126
-45.29
-43.502
-41.778
-40.137
-38.599
-37.186
-35.917
-34.809
-33.879
-33.145
-32.625
-32.336
-32.296
-32.515
-32.997
-33.751
-34.782
-36.098
-37.708
-39.605
-41.783
-44.232
-46.945
-49.926
-53.18
-56.703
-60.485
-64.511
-68.765
-73.238
-77.916
-82.763
-87.739
-92.788
-97.843
-102.869
-107.831
-112.705
-117.473
-122.071
-126.415
-130.429
-134.035
-137.198
-139.936
-142.224
-144.001
-145.324
-146.325
-147.311
-148.769
-150.961
-153.906
-157.567
-161.924
-166.984
-172.681
-178.466
-183.195
-185.987
-186.522
-184.916
-181.554
-176.603
-170.198
-163.141
-157.307
-154.686
-156.521
-163.252
-174.46
-189.672
-208.53
-229.816
-250.769
-267.708
-277.079
-275.649
-261.264
-232.273
-186.357
-122.044
-39.966
57.862
166.792
279.687
392.286
501.147
603.108
698.552
780.758
838.066
860.721
837.184
767.639
664.441
540.194
409.797
281.846
156.39
35.444
-77.91
-179.139
-261.615
-322.4
-362.23
-383.282
-388.79
-381.56
-364.331
-340.424
-313.354
-285.993
-259.626
-234.761
-211.813
-191.545
-175.133
-163
-154.529
-148.978
-146.149
-145.962
-148.294
-152.335
-156.28
-158.961
-160.154
-159.923
-158.495
-156.049
-152.596
-148.608
-145.221
-143.126
-142.509
-143.298
-145.042
-147.356
-150.05
-152.78
-155.037
-156.487
-156.921
-156.228
-154.507
-151.842
-148.266
-143.865
-138.726
-132.93
-126.585
-119.809
-112.716
-105.414
-97.997
-90.523
-83.043
-75.596
-68.219
-60.94
-53.767
-46.695
-39.716
-32.824
-26.021
-19.304
-12.657
-6.052
0.548
7.162
13.795
20.436
27.067
33.668
40.218
46.69
53.058
59.295
65.38
71.297
77.028
82.562
87.9
93.044
98.003
102.789
107.42
111.921
116.334
120.688
125.006
129.296
133.554
137.763
141.893
145.907
149.765
153.401
156.731
159.658
162.071
163.866
164.944
165.198
164.51
162.779
159.926
155.896
150.664
144.219
136.573
127.751
117.797
106.788
94.823
82.023
68.529
54.474
39.983
25.19
10.234
-4.757
-19.668
-34.405
-48.9
-63.089
-76.918
-90.346
-103.342
-115.899
-128.022
-139.733
-151.067
-162.048
-172.692
-183.017
-193.04
-202.773
-212.223
-221.387
-230.247
-238.79
-247.007
-254.885
-262.412
-269.568
-276.333
-282.681
-288.588
-294.038
-299.023
-303.539
-307.587
-311.175
-314.311
-317.015
-319.311
-321.223
-322.771
-323.979
-324.87
-325.466
-325.796
-325.885
-325.76
-325.446
-324.967
-324.345
-323.601
-322.757
-321.831
-320.839
-319.796
-318.719
-317.621
-316.517
-315.421
-314.346
-313.303
-312.302
-311.353
-310.463
-309.64
-308.888
-308.21
-307.609
-307.087
-306.644
-306.28
-305.994
-305.785
-305.648
-305.582
-305.582
-305.646
-305.768
-305.944
-306.17
-306.441
-306.751
-307.097
-307.473
-307.874
-308.294
-308.731
-309.177
-309.63
-310.085
-310.537
-310.983
-311.42
-311.843
-312.252
-312.642
-313.012
-313.361
-313.686
-313.986
-314.262
-314.513
-314.737
-314.937
-315.112
-315.263
-315.39
-315.494
-315.576
-315.637
-315.678
-315.699
-315.701
-315.684
-315.651
-315.6
-315.534
-315.453
-315.357
-315.246
-315.121
-314.981
-314.826
-314.653
-314.463
-314.254
-314.023
-313.769
-313.49
-313.184
-312.847
-312.478
-312.074
-311.631
-311.146
-310.616
-310.037
-309.404
-308.715
-307.965
-307.15
-306.266
-305.311
-304.28
-303.17
-301.977
-300.698
-299.329
-297.867
-296.309
-294.652
-292.894
-291.033
-289.069
-287
-284.828
-282.553
-280.177
-277.701
-275.13
-272.466
-269.712
-266.875
-263.96
-260.972
-257.92
-254.811
-251.653
-248.458
-245.238
-242.006
-238.775
-235.561
-232.38
-229.247
-226.18
-223.194
-220.303
-217.522
-214.864
-212.343
-209.976
-207.779
-205.765
-203.95
-202.344
-200.96
-199.806
-198.889
-198.209
-197.764
-197.556
-197.586
-197.867
-198.411
-199.227
-200.321
-201.694
-203.339
-205.242
-207.381
-209.715
-212.204
-214.803
-217.469
-220.171
-222.871
-225.528
-228.092
-230.493
-232.655
-234.517
-236.014
-237.099
-237.765
-238.013
-237.884
-237.455
-236.79
-235.976
-235.13
-234.357
-233.796
-233.596
-233.872
-234.814
-236.688
-239.647
-243.73
-248.766
-254.268
-259.722
-264.686
-268.584
-270.791
-270.917
-268.891
-265.318
-261.511
-258.852
-258.458
-261.221
-267.815
-278.356
-292.113
-307.03
-319.742
-326.337
-323.093
-306.786
-274.413
-223.802
-154.156
-66.475
36.023
148.526
265.567
381.28
488.946
581.927
654.166
700.655
718.736
707.622
667.746
601.179
511.948
405.276
287.713
166.486
47.652
-63.39
-161.827
-244.415
-309.225
-355.526
-384.733
-399.57
-402.5
-396.283
-383.561
-366.184
-346.197
-325.436
-304.33
-282.816
-261.137
-239.517
-218.803
-200.215
-184.055
-170.309
-159.442
-151.715
-147.094
-145.182
-144.596
-143.882
-142.465
-140.085
-136.567
-131.992
-126.401
-120.139
-114.222
-109.499
-106.31
-104.746
-104.568
-105.426
-107.124
-109.323
-111.457
-113.079
-113.85
-113.565
-112.251
-109.959
-106.702
-102.537
-97.535
-91.751
-85.281
-78.205
-70.584
-62.493
-53.984
-45.117
-35.974
-26.64
-17.221
-7.798
1.594
10.932
20.204
29.404
38.514
47.528
56.464
65.333
74.141
82.885
91.545
100.103
108.556
116.902
125.151
133.308
141.365
149.315
157.145
164.838
172.387
179.788
187.034
194.13
201.086
207.912
214.635
221.291
227.906
234.495
241.059
247.583
254.039
260.393
266.612
272.66
278.481
284.003
289.145
293.821
297.956
301.483
304.313
306.334
307.441
307.553
306.608
304.574
301.433
297.168
291.774
285.265
277.693
269.128
259.655
249.355
238.283
226.496
214.087
201.181
187.909
174.39
160.731
147.03
133.394
119.954
106.821
94.08
81.78
69.955
58.643
47.894
37.79
28.4
19.756
11.864
4.716
-1.69
-7.365
-12.332
-16.651
-20.413
-23.69
-26.53
-28.954
-30.979
-32.635
-33.97
-35.053
-35.934
-36.645
-37.21
-37.646
-37.978
-38.218
-38.358
-38.362
-38.172
-37.75
-37.081
-36.165
-35.006
-33.603
-31.943
-30.02
-27.838
-25.409
-22.742
-19.847
-16.728
-13.4
-9.888
-6.234
-2.483
1.33
5.18
9.05
12.925
16.789
20.63
24.439
28.218
31.967
35.682
39.361
42.997
46.59
50.142
53.661
57.153
60.622
64.071
67.505
70.926
74.337
77.74
81.135
84.519
87.891
91.254
94.609
97.959
101.304
104.648
107.993
111.341
114.695
118.057
121.427
124.807
128.197
131.599
135.012
138.438
141.876
145.327
148.792
152.272
155.766
159.275
162.799
166.338
169.893
173.465
177.055
180.663
184.293
187.944
191.621
195.325
199.059
202.826
206.628
210.468
214.349
218.275
222.246
226.268
230.344
234.476
238.671
242.93
247.26
251.663
256.143
260.705
265.352
270.086
274.912
279.832
284.849
289.965
295.184
300.509
305.94
311.479
317.128
322.886
328.755
334.732
340.818
347.011
353.309
359.709
366.21
372.807
379.497
386.275
393.136
400.075
407.084
414.155
421.278
428.442
435.638
442.853
450.073
457.284
464.473
471.628
478.737
485.788
492.77
499.67
506.473
513.169
519.745
526.187
532.481
538.615
544.578
550.366
555.977
561.417
566.683
571.774
576.682
581.399
585.923
590.258
594.402
598.361
602.144
605.78
609.312
612.792
616.261
619.758
623.308
626.935
630.674
634.57
638.678
643.059
647.752
652.777
658.157
663.895
669.981
676.372
682.966
689.627
696.25
702.771
709.187
715.549
721.759
727.604
732.854
737.201
740.493
742.662
743.459
742.934
741.481
739.536
738.098
737.669
738.419
741.803
748.738
760.6
776.159
795.128
827.586
853.087
827.948
790.926
822.007
912.568
982.385
922.472
704.099
517.161
565.87
785.18
977.905
1095.459
1208.368
1326.973
1423.754
1511.132
1597.838
1678.62
1750.566
1801.396
1823.542
1817.042
1780.781
1718.323
1634.903
1534.095
1420.948
1301.274
1180.198
1062.579
953.511
857.12
776.136
712.547
666.637
636.923
621.642
618.586
624.503
636.32
651.103
665.878
679.162
690.633
699.95
707.244
713.473
719.418
726.025
734.762
744.662
754.322
765.057
776.82
792.013
813.49
836.302
857.097
871.316
873.021
867.032
857.37
847.301
842.679
840.91
839.101
837.28
834.107
831.654
832.657
837.078
844.389
854.088
865.627
878.852
893.72
909.649
925.612
941.289
957.044
972.985
989.151
1005.443
1021.426
1036.956
1052.211
1067.048
1081.095
1094.066
1105.638
1115.645
1124.197
1131.316
1136.997
1141.382
1144.658
1147.102
1149.157
1151.285
1153.849
1157.338
1162.37
1169.229
1177.921
1188.272
1199.418
1211.536
1226.321
1244.236
1264.552
1282.221
1287.877
1276.06
1248.539
1219.813
1212.511
1246.752
1324.948
1399.069
1451.617
1562.108
1666.475
1497.519
1055.163
774.259
958.783
1336.654
1442.133
1234.881
1014.363
944.455
988.236
1080.512
1130.806
1023.149
740.712
416.533
222.931
198.536
212.797
165.836
91.731
17.921
-76.216
-182.856
-281.796
-370.003
-451.746
-537.283
-629.213
-719.644
-799.266
-855.712
-888.312
-908.246
-924.229
-945.607
-974.257
-1002.718
-1026.995
-1044.567
-1054.486
-1059.997
-1062.787
-1062.933
-1061.035
-1057.149
-1051.396
-1044.434
-1036.825
-1028.837
-1020.777
-1013.009
-1005.684
-998.902
-992.782
-987.333
-982.542
-978.436
-974.985
-972.109
-969.721
-967.713
-965.974
-964.43
-963.047
-961.814
-960.704
-959.66
-958.617
-957.519
-956.354
-955.137
-953.888
-952.644
-951.447
-950.364
-949.504
-948.971
-948.837
-949.15
-949.9
-951.053
-952.59
-954.504
-956.787
-959.422
-962.355
-965.512
-968.815
-972.162
-975.451
-978.567
-981.36
-983.702
-985.502
-986.688
-987.243
-987.172
-986.476
-985.171
-983.281
-980.835
-977.895
-974.542
-970.859
-966.961
-962.955
-958.944
-955.054
-951.386
-948.013
-944.999
-942.371
-940.133
-938.291
-936.836
-935.744
-934.997
-934.551
-934.353
-934.347
-934.452
-934.601
-934.74
-934.805
-934.752
-934.547
-934.161
-933.583
-932.816
-931.863
-930.729
-929.426
-927.961
-926.35
-924.616
-922.78
-920.873
-918.919
-916.93
-914.918
-912.891
-910.852
-908.801
-906.733
-904.637
-902.506
-900.332
-898.109
-895.833
-893.5
-891.101
-888.629
-886.079
-883.443
-880.719
-877.905
-874.997
-871.996
-868.902
-865.716
-862.443
-859.083
-855.638
-852.109
-848.495
-844.796
-841.015
-837.153
-833.21
-829.188
-825.092
-820.925
-816.693
-812.398
-808.047
-803.645
-799.196
-794.705
-790.177
-785.617
-781.031
-776.423
-771.8
-767.167
-762.53
-757.897
-753.277
-748.678
-744.11
-739.584
-735.11
-730.7
-726.364
-722.114
-717.958
-713.905
-709.964
-706.145
-702.457
-698.915
-695.527
-692.303
-689.251
-686.376
-683.687
-681.185
-678.867
-676.73
-674.77
-672.99
-671.402
-670.02
-668.849
-667.895
-667.155
-666.616
-666.266
-666.079
-666.011
-666.015
-666.04
-666.039
-665.979
-665.824
-665.531
-665.046
-664.29
-663.185
-661.67
-659.69
-657.207
-654.222
-650.738
-646.805
-642.521
-637.97
-633.263
-628.536
-623.896
-619.492
-615.477
-611.971
-609.174
-607.351
-606.641
-607.073
-608.462
-610.337
-612.216
-613.694
-614.22
-613.18
-610.148
-604.954
-598.085
-590.693
-583.956
-578.809
-575.88
-575.583
-578.008
-582.646
-587.804
-590.595
-587.579
-575.278
-551.065
-512.77
-458.203
-386.237
-297.384
-193.436
-79.472
38.186
156.001
268.94
373.607
467.206
540.114
585.08
596.695
571.759
516.057
434.521
331.228
209.686
73.786
-65.061
-193.736
-297.997
-371.068
-419.147
-449.639
-471.613
-489.171
-497.404
-493.914
-478.634
-453.777
-425.361
-397.396
-371.292
-348.015
-328.137
-312.313
-300.927
-293.645
-289.562
-287.509
-286.715
-286.402
-285.226
-282.042
-276.263
-267.65
-256.512
-243.519
-229.17
-214.146
-199.537
-186.165
-174.502
-164.812
-156.977
-150.706
-145.775
-141.812
-138.302
-134.89
-131.369
-127.633
-123.722
-119.658
-115.412
-110.973
-106.319
-101.401
-96.153
-90.474
-84.278
-77.528
-70.223
-62.397
-54.098
-45.359
-36.198
-26.635
-16.677
-6.342
4.354
15.399
26.748
38.343
50.111
61.952
73.788
85.564
97.225
108.734
120.063
131.184
142.074
152.728
163.13
173.267
183.125
192.68
201.931
210.895
219.602
228.093
236.409
244.58
252.644
260.644
268.611
276.563
284.503
292.414
300.273
308.047
315.693
323.165
330.395
337.304
343.802
349.787
355.164
359.839
363.717
366.698
368.692
369.62
369.417
368.026
365.42
361.595
356.572
350.404
343.156
334.902
325.739
315.78
305.13
293.89
282.155
270.005
257.539
244.863
232.097
219.376
206.804
194.458
182.398
170.655
159.256
148.231
137.586
127.306
117.397
107.872
98.768
90.152
82.058
74.486
67.415
60.79
54.573
48.754
43.322
38.273
33.608
29.318
25.411
21.918
18.843
16.176
13.88
11.886
10.154
8.671
7.439
6.486
5.829
5.461
5.384
5.599
6.101
6.882
7.918
9.169
10.606
12.214
13.985
15.931
18.046
20.311
22.7
25.177
27.711
30.278
32.852
35.4
37.901
40.335
42.693
44.974
47.176
49.291
51.312
53.227
55.032
56.724
58.304
59.773
61.132
62.386
63.538
64.596
65.566
66.453
67.26
67.987
68.639
69.218
69.73
70.179
70.568
70.904
71.19
71.435
71.643
71.819
71.97
72.098
72.208
72.304
72.391
72.47
72.545
72.619
72.692
72.768
72.848
72.933
73.024
73.122
73.229
73.344
73.468
73.603
73.747
73.903
74.069
74.248
74.44
74.646
74.867
75.104
75.36
75.635
75.93
76.248
76.59
76.956
77.35
77.772
78.226
78.712
79.234
79.794
80.395
81.041
81.734
82.478
83.275
84.129
85.042
86.017
87.056
88.163
89.338
90.584
91.904
93.298
94.767
96.313
97.935
99.633
101.406
103.252
105.169
107.153
109.202
111.312
113.479
115.697
117.961
120.265
122.602
124.965
127.345
129.731
132.113
134.476
136.806
139.09
141.31
143.451
145.495
147.428
149.236
150.905
152.422
153.773
154.945
155.921
156.687
157.231
157.541
157.606
157.418
156.97
156.263
155.296
154.072
152.586
150.827
148.779
146.435
143.785
140.832
137.584
134.054
130.267
126.264
122.09
117.796
113.437
109.05
104.68
100.374
96.191
92.212
88.523
85.195
82.297
79.871
77.927
76.464
75.444
74.785
74.413
74.221
74.066
73.826
73.342
72.448
71.018
68.835
65.608
61.176
55.5
48.771
41.494
34.166
27.177
21.079
16.492
13.819
13.215
14.123
15.269
15.437
13.72
9.487
2.37
-7.598
-19.756
-32.145
-41.54
-44.355
-37.172
-17.275
17.598
69.313
138.642
224.755
324.995
435.159
550.324
665.573
775.4
873.71
954.81
1013.586
1046.311
1051.321
1027.985
976.617
899.441
800.404
684.834
559.399
430.754
304.588
186.594
81.925
-5.609
-73.545
-121.621
-151.451
-165.189
-164.969
-153.391
-133.499
-108.71
-82.271
-55.932
-30.56
-6.91
13.959
30.558
42.165
49.274
52.745
53.021
50.436
45.364
38.862
33.001
29.197
27.847
28.928
32.131
37.13
43.722
51.212
58.269
63.985
67.985
70.209
71.002
70.708
69.529
67.83
66.115
64.71
63.8
63.473
63.657
64.3
65.408
66.962
68.956
71.432
74.414
77.906
81.902
86.361
91.232
96.49
102.117
108.093
114.399
121.009
127.9
135.064
142.486
150.129
157.93
165.805
173.691
181.553
189.372
197.137
204.834
212.443
219.953
227.36
234.657
241.831
248.864
255.73
262.415
268.911
275.22
281.349
287.297
293.049
298.587
303.891
308.935
313.693
318.133
322.219
325.921
329.213
332.068
334.461
336.36
337.736
338.569
338.836
338.519
337.607
336.095
333.99
331.314
328.081
324.297
319.968
315.087
309.651
303.663
297.124
290.033
282.394
274.204
265.47
256.212
246.435
236.134
225.293
213.869
201.848
189.248
176.101
162.459
148.383
133.94
119.218
104.326
89.363
74.424
59.59
44.919
30.491
16.402
2.764
-10.286
-22.646
-34.253
-45.055
-55.022
-64.152
-72.449
-79.961
-86.775
-92.959
-98.567
-103.64
-108.196
-112.276
-115.939
-119.252
-122.297
-125.142
-127.828
-130.4
-132.893
-135.324
-137.696
-139.986
-142.135
-144.109
-145.892
-147.479
-148.884
-150.114
-151.166
-152.042
-152.746
-153.282
-153.662
-153.893
-153.98
-153.938
-153.792
-153.576
-153.34
-153.123
-152.948
-152.837
-152.8
-152.848
-152.99
-153.23
-153.564
-153.991
-154.508
-155.117
-155.82
-156.615
-157.497
-158.457
-159.484
-160.569
-161.703
-162.878
-164.086
-165.32
-166.573
-167.84
-169.12
-170.409
-171.702
-172.994
-174.279
-175.551
-176.807
-178.042
-179.252
-180.432
-181.58
-182.696
-183.777
-184.825
-185.839
-186.82
-187.77
-188.689
-189.581
-190.448
-191.29
-192.11
-192.911
-193.695
-194.465
-195.223
-195.972
-196.713
-197.448
-198.18
-198.91
-199.637
-200.364
-201.09
-201.815
-202.539
-203.261
-203.98
-204.696
-205.406
-206.109
-206.802
-207.483
-208.147
-208.79
-209.408
-209.995
-210.547
-211.058
-211.522
-211.934
-212.287
-212.577
-212.796
-212.94
-213.002
-212.976
-212.857
-212.64
-212.32
-211.893
-211.355
-210.703
-209.935
-209.049
-208.044
-206.921
-205.68
-204.32
-202.845
-201.258
-199.563
-197.764
-195.868
-193.882
-191.816
-189.681
-187.491
-185.258
-182.995
-180.718
-178.442
-176.181
-173.955
-171.778
-169.668
-167.64
-165.711
-163.899
-162.224
-160.704
-159.351
-158.178
-157.196
-156.413
-155.838
-155.479
-155.341
-155.426
-155.736
-156.276
-157.053
-158.069
-159.327
-160.818
-162.525
-164.429
-166.501
-168.713
-171.038
-173.438
-175.875
-178.31
-180.689
-182.974
-185.133
-187.12
-188.904
-190.427
-191.601
-192.387
-192.782
-192.801
-192.532
-192.009
-191.157
-190.079
-189.025
-188.225
-188.015
-188.515
-189.504
-191.041
-193.48
-196.792
-200.688
-204.588
-207.369
-208.507
-208.308
-206.634
-203.012
-197.413
-190.078
-182.135
-175.849
-172.654
-172.772
-176.498
-184.072
-195.278
-209.464
-224.368
-235.955
-240.386
-234.565
-215.776
-181.684
-130.3
-60.387
27.31
129.807
242.79
361.16
479.553
592.12
692.376
773.956
831.463
861.098
861.035
831.161
772.625
688.317
583.02
462.987
335.405
207.48
85.566
-24.921
-119.466
-194.88
-249.731
-284.679
-301.911
-304.352
-294.995
-276.596
-252.107
-224.666
-196.775
-169.64
-143.804
-119.537
-97.424
-78.725
-64.025
-52.926
-44.962
-39.994
-37.901
-38.559
-41.114
-43.688
-45.054
-44.885
-43.123
-39.952
-35.546
-29.933
-23.643
-17.85
-13.267
-10.108
-8.327
-7.493
-7.241
-7.388
-7.583
-7.316
-6.253
-4.193
-1.038
3.104
8.147
14.056
20.747
28.131
36.124
44.618
53.494
62.641
71.951
81.33
90.716
100.061
109.323
118.469
127.47
136.323
145.035
153.617
162.07
170.381
178.551
186.597
194.555
202.473
210.381
218.292
226.212
234.143
242.078
250.01
257.914
265.743
273.457
281.022
288.414
295.631
302.659
309.48
316.075
322.417
328.497
334.324
339.899
345.217
350.279
355.084
359.651
364.027
368.237
372.298
376.21
379.942
383.47
386.778
389.831
392.597
395.028
397.04
398.564
399.553
399.946
399.697
398.741
396.976
394.33
390.75
386.191
380.643
374.096
366.52
357.91
348.275
337.636
326.073
313.666
300.47
286.567
272.031
256.952
241.465
225.699
209.763
193.775
177.848
162.095
146.675
131.743
117.429
103.861
91.112
79.232
68.289
58.326
49.377
41.467
34.576
28.673
23.736
19.729
16.595
14.267
12.625
11.527
10.85
10.475
10.312
10.298
10.362
10.443
10.495
10.481
10.381
10.19
9.892
9.472
8.937
8.301
7.609
6.931
6.319
5.815
5.45
5.235
5.18
5.294
5.568
5.986
6.528
7.17
7.898
8.701
9.561
10.454
11.351
12.208
12.994
13.689
14.272
14.733
15.064
15.259
15.32
15.261
15.089
14.813
14.44
13.974
13.419
12.785
12.08
11.314
10.495
9.63
8.724
7.785
6.819
5.831
4.825
3.8
2.761
1.711
0.655
-0.405
-1.462
-2.512
-3.551
-4.574
-5.575
-6.551
-7.497
-8.41
-9.287
-10.125
-10.921
-11.672
-12.376
-13.031
-13.635
-14.185
-14.68
-15.117
-15.494
-15.809
-16.059
-16.242
-16.355
-16.395
-16.361
-16.25
-16.059
-15.785
-15.426
-14.98
-14.444
-13.816
-13.095
-12.279
-11.368
-10.363
-9.263
-8.071
-6.787
-5.416
-3.959
-2.42
-0.804
0.884
2.64
4.456
6.327
8.244
10.199
12.184
14.188
16.197
18.2
20.182
22.128
24.023
25.85
27.592
29.234
30.761
32.16
33.416
34.513
35.436
36.168
36.696
37.009
37.094
36.943
36.546
35.9
35.008
33.87
32.487
30.858
28.97
26.813
24.384
21.682
18.711
15.481
12.004
8.302
4.416
0.387
-3.74
-7.921
-12.125
-16.311
-20.429
-24.42
-28.203
-31.7
-34.849
-37.594
-39.895
-41.734
-43.102
-44.022
-44.551
-44.763
-44.76
-44.658
-44.57
-44.637
-44.987
-45.785
-47.284
-49.656
-52.978
-57.192
-61.998
-67.029
-71.969
-76.374
-79.689
-81.545
-81.7
-80.325
-78.29
-76.519
-75.91
-77.4
-81.584
-88.732
-98.809
-110.807
-122.489
-131.201
-133.687
-126.656
-107.678
-74.126
-23.689
44.261
129.097
227.616
333.261
441.31
548.498
652.105
752.586
843.143
910.836
944.417
932.531
876.598
789.605
682.608
564.606
436.982
297.299
151.763
15.601
-93.489
-163.834
-196.781
-205.983
-206.576
-207.278
-209.036
-207.082
-198.102
-182.795
-164.129
-145.638
-128.573
-112.378
-96.711
-81.349
-66.549
-52.95
-40.705
-30.186
-22.023
-16.587
-13.704
-12.553
-12.213
-11.875
-11.118
-9.738
-7.563
-4.572
-1.093
2.139
4.514
5.597
5.223
3.568
0.869
-2.58
-6.339
-9.885
-12.839
-14.929
-15.998
-16.054
-15.116
-13.219
-10.455
-6.927
-2.718
2.099
7.455
13.281
19.475
25.911
32.473
39.069
45.634
52.12
58.48
64.688
70.734
76.631
82.402
88.061
93.608
99.045
104.378
109.619
114.786
119.89
124.938
129.935
134.881
139.779
144.629
149.422
154.136
158.747
163.226
167.559
171.749
175.8
179.72
183.529
187.262
190.964
194.695
198.495
202.374
206.334
210.363
214.458
218.621
222.838
227.078
231.302
235.453
239.476
243.305
246.838
249.939
252.455
254.219
255.101
255.013
253.876
251.627
248.194
243.509
237.543
230.295
221.773
211.991
200.96
188.713
175.343
160.994
145.835
130.048
113.786
97.179
80.366
63.492
46.717
30.202
14.068
-1.588
-16.669
-31.069
-44.668
-57.368
-69.134
-79.975
-89.919
-99.004
-107.255
-114.692
-121.37
-127.358
-132.744
-137.626
-142.069
-146.124
-149.852
-153.322
-156.621
-159.821
-162.956
-166.034
-169.057
-172.026
-174.949
-177.831
-180.648
-183.364
-185.936
-188.311
-190.464
-192.377
-194.031
-195.408
-196.483
-197.242
-197.69
-197.844
-197.72
-197.337
-196.707
-195.846
-194.787
-193.566
-192.223
-190.801
-189.33
-187.835
-186.342
-184.871
-183.441
-182.067
-180.756
-179.51
-178.333
-177.228
-176.202
-175.257
-174.393
-173.608
-172.898
-172.258
-171.686
-171.178
-170.733
-170.346
-170.017
-169.745
-169.529
-169.37
-169.268
-169.219
-169.222
-169.274
-169.371
-169.51
-169.688
-169.9
-170.144
-170.415
-170.713
-171.033
-171.374
-171.732
-172.104
-172.488
-172.881
-173.279
-173.68
-174.08
-174.477
-174.869
-175.253
-175.625
-175.984
-176.326
-176.648
-176.948
-177.22
-177.462
-177.669
-177.836
-177.961
-178.038
-178.063
-178.031
-177.939
-177.782
-177.555
-177.253
-176.872
-176.406
-175.853
-175.208
-174.467
-173.627
-172.687
-171.645
-170.5
-169.252
-167.903
-166.452
-164.903
-163.257
-161.518
-159.692
-157.782
-155.795
-153.737
-151.619
-149.451
-147.246
-145.018
-142.78
-140.548
-138.34
-136.172
-134.06
-132.019
-130.064
-128.21
-126.474
-124.873
-123.425
-122.144
-121.046
-120.144
-119.449
-118.972
-118.72
-118.693
-118.892
-119.318
-119.978
-120.886
-122.055
-123.494
-125.208
-127.197
-129.453
-131.97
-134.724
-137.679
-140.792
-144.018
-147.31
-150.635
-153.948
-157.199
-160.325
-163.239
-165.864
-168.129
-169.971
-171.351
-172.246
-172.647
-172.575
-172.086
-171.254
-170.19
-169.02
-167.868
-166.89
-166.218
-166.034
-166.617
-168.156
-170.733
-174.285
-178.474
-182.907
-187.271
-191.105
-193.825
-195.05
-194.541
-192.548
-190.102
-188.22
-187.794
-189.735
-194.622
-202.686
-213.786
-226.63
-238.545
-246.532
-247.278
-237.48
-214.487
-175.744
-119.335
-44.991
45.774
150.012
263.39
380.873
497.101
605.553
699.566
773.162
821.432
841.457
831.968
792.9
725.756
634.318
524.073
401.819
274.815
149.236
30.852
-74.894
-163.669
-232.73
-281.461
-311.276
-324.534
-323.345
-310.322
-288.816
-262.428
-234.663
-207.798
-182.89
-160.732
-142.469
-129.031
-120.498
-116.136
-114.66
-115.093
-116.872
-119.253
-120.986
-120.767
-117.882
-112.266
-104.378
-94.813
-84.059
-72.769
-61.935
-52.455
-44.841
-39.267
-35.557
-33.373
-32.428
-32.343
-32.594
-32.814
-32.806
-32.457
-31.791
-30.825
-29.504
-27.808
-25.755
-23.304
-20.395
-16.985
-13.02
-8.505
-3.501
1.938
7.759
13.929
20.436
27.261
34.381
41.774
49.414
57.271
65.312
73.481
81.707
89.933
98.117
106.235
114.282
122.251
130.124
137.885
145.512
152.987
160.293
167.409
174.316
180.997
187.44
193.649
199.632
205.398
210.962
216.335
221.529
226.576
231.5
236.332
241.107
245.838
250.534
255.208
259.857
264.481
269.073
273.608
278.063
282.415
286.606
290.571
294.225
297.439
300.105
302.115
303.343
303.701
303.107
301.474
298.741
294.858
289.767
283.433
275.823
266.896
256.667
245.189
232.542
218.872
204.309
188.977
173.033
156.623
139.887
122.986
106.061
89.248
72.71
56.616
41.131
26.432
12.645
-0.157
-11.921
-22.648
-32.338
-40.985
-48.62
-55.288
-61.035
-65.921
-70.011
-73.366
-76.094
-78.33
-80.202
-81.846
-83.368
-84.829
-86.287
-87.777
-89.323
-90.95
-92.662
-94.446
-96.295
-98.205
-100.156
-102.135
-104.097
-105.971
-107.7
-109.233
-110.534
-111.59
-112.39
-112.926
-113.207
-113.248
-113.07
-112.701
-112.162
-111.468
-110.641
-109.704
-108.691
-107.643
-106.594
-105.567
-104.582
-103.654
-102.792
-102.006
-101.298
-100.66
-100.086
-99.572
-99.114
-98.712
-98.363
-98.062
-97.803
-97.579
-97.385
-97.218
-97.076
-96.955
-96.853
-96.767
-96.699
-96.649
-96.619
-96.606
-96.612
-96.632
-96.667
-96.716
-96.777
-96.847
-96.927
-97.015
-97.112
-97.218
-97.333
-97.457
-97.592
-97.739
-97.897
-98.068
-98.253
-98.453
-98.668
-98.899
-99.146
-99.409
-99.688
-99.982
-100.289
-100.608
-100.936
-101.272
-101.611
-101.95
-102.286
-102.615
-102.933
-103.235
-103.518
-103.777
-104.008
-104.205
-104.365
-104.482
-104.55
-104.564
-104.518
-104.408
-104.226
-103.968
-103.629
-103.203
-102.685
-102.071
-101.356
-100.537
-99.609
-98.569
-97.415
-96.146
-94.76
-93.258
-91.641
-89.912
-88.074
-86.13
-84.087
-81.949
-79.724
-77.418
-75.04
-72.6
-70.105
-67.567
-64.998
-62.411
-59.821
-57.245
-54.701
-52.205
-49.777
-47.437
-45.202
-43.092
-41.12
-39.301
-37.652
-36.188
-34.926
-33.882
-33.071
-32.504
-32.192
-32.144
-32.368
-32.867
-33.636
-34.67
-35.965
-37.527
-39.368
-41.501
-43.93
-46.655
-49.669
-52.959
-56.512
-60.298
-64.271
-68.377
-72.561
-76.775
-80.983
-85.143
-89.202
-93.084
-96.693
-99.943
-102.759
-105.088
-106.894
-108.156
-108.871
-109.074
-108.829
-108.236
-107.424
-106.512
-105.634
-104.934
-104.536
-104.655
-105.594
-107.552
-110.605
-114.604
-119.111
-123.675
-127.933
-131.377
-133.386
-133.507
-131.543
-128.03
-124.276
-121.644
-121.278
-124.031
-130.477
-140.824
-154.632
-170.046
-183.783
-191.937
-190.481
-176.047
-145.799
-97.296
-29.176
58.089
161.994
278.174
400.968
524.533
642.54
748.06
834.508
896.218
929.053
931.127
902.477
844.423
760.106
654.535
534.056
405.947
277.487
154.974
43.743
-51.755
-128.477
-185.054
-222.039
-241.53
-246.304
-239.163
-222.896
-200.567
-175.285
-149.623
-125.081
-102.368
-82.002
-64.785
-51.571
-42.453
-36.801
-33.793
-32.78
-33.359
-34.974
-36.43
-36.421
-34.316
-30.064
-24.056
-16.866
-8.9
-0.68
6.884
12.997
17.258
19.547
20.113
19.362
17.617
15.294
12.897
10.782
9.193
8.302
8.172
8.855
10.402
12.793
15.978
19.928
24.618
30.025
36.114
42.803
49.992
57.593
65.541
73.788
82.279
90.942
99.683
108.426
117.126
125.754
134.283
142.687
150.943
159.045
167.011
174.867
182.626
190.294
197.864
205.33
212.686
219.925
227.032
233.987
240.771
247.37
253.784
260.008
266.035
271.851
277.434
282.778
287.885
292.753
297.378
301.756
305.892
309.814
313.572
317.206
320.732
324.138
327.394
330.471
333.332
335.93
338.204
340.065
341.431
342.242
342.453
342.022
340.892
338.979
336.177
332.408
327.628
321.825
315.008
307.192
298.414
288.74
278.271
267.14
255.464
243.332
230.818
217.995
204.953
191.802
178.666
165.644
152.815
140.244
127.985
116.091
104.597
93.507
82.797
72.422
62.356
52.595
43.145
34.014
25.204
16.704
8.504
0.609
-6.976
-14.247
-21.201
-27.843
-34.164
-40.147
-45.762
-50.975
-55.765
-60.125
-64.055
-67.557
-70.637
-73.302
-75.567
-77.455
-78.986
-80.179
-81.051
-81.62
-81.906
-81.933
-81.729
-81.322
-80.738
-80.001
-79.133
-78.157
-77.095
-75.966
-74.786
-73.57
-72.333
-71.089
-69.854
-68.643
-67.47
-66.346
-65.283
-64.291
-63.382
-62.56
-61.834
-61.208
-60.685
-60.268
-59.959
-59.759
-59.667
-59.684
-59.807
-60.034
-60.363
-60.791
-61.312
-61.923
-62.619
-63.394
-64.244
-65.163
-66.145
-67.186
-68.28
-69.422
-70.608
-71.832
-73.088
-74.373
-75.681
-77.007
-78.348
-79.697
-81.052
-82.407
-83.76
-85.107
-86.444
-87.768
-89.076
-90.365
-91.63
-92.87
-94.08
-95.257
-96.399
-97.503
-98.564
-99.582
-100.552
-101.471
-102.337
-103.145
-103.892
-104.574
-105.187
-105.728
-106.191
-106.574
-106.872
-107.081
-107.197
-107.217
-107.136
-106.95
-106.657
-106.252
-105.732
-105.096
-104.341
-103.466
-102.471
-101.356
-100.122
-98.77
-97.304
-95.727
-94.042
-92.254
-90.369
-88.395
-86.338
-84.206
-82.009
-79.76
-77.471
-75.157
-72.835
-70.52
-68.231
-65.986
-63.805
-61.706
-59.705
-57.818
-56.063
-54.456
-53.016
-51.762
-50.711
-49.88
-49.285
-48.937
-48.85
-49.033
-49.488
-50.214
-51.213
-52.487
-54.052
-55.92
-58.097
-60.589
-63.394
-66.501
-69.894
-73.55
-77.423
-81.465
-85.627
-89.859
-94.124
-98.384
-102.59
-106.688
-110.595
-114.23
-117.527
-120.42
-122.863
-124.842
-126.35
-127.423
-128.141
-128.571
-128.805
-128.963
-129.14
-129.475
-130.115
-131.173
-132.853
-135.42
-139.032
-143.742
-149.382
-155.478
-161.543
-167.147
-171.71
-174.604
-175.374
-173.823
-170.483
-166.608
-163.52
-162.346
-163.939
-168.89
-177.436
-189.164
-202.276
-213.617
-219.411
-215.798
-199.553
-167.902
-118.473
-49.954
37.183
140.473
255.64
377.152
499.273
615.726
719.647
804.523
864.706
896.043
896.547
866.114
805.917
719.028
610.442
486.384
354.096
220.908
93.254
-23.127
-123.327
-204
-263.525
-301.999
-321.203
-323.791
-312.661
-291.346
-263.665
-233.292
-203.462
-176.482
-153.787
-136.237
-124.366
-118.01
-116.346
-118.01
-121.373
-124.95
-127.39
-127.73
-125.228
-119.516
-110.776
-99.603
-86.883
-73.695
-61.189
-50.165
-41.193
-34.583
-30.279
-28.092
-27.697
-28.597
-30.222
-32.155
-34.11
-35.923
-37.552
-38.936
-39.994
-40.654
-40.863
-40.552
-39.631
-38.025
-35.672
-32.547
-28.678
-24.12
-18.933
-13.182
-6.924
-0.197
6.96
14.504
22.393
30.559
38.928
47.429
55.974
64.502
72.97
81.338
89.586
97.71
105.705
113.566
121.286
128.835
136.183
143.31
150.201
156.862
163.301
169.53
175.565
181.416
187.102
192.64
198.036
203.282
208.372
213.307
218.104
222.809
227.455
232.053
236.588
241.029
245.341
249.482
253.398
257.017
260.241
262.979
265.164
266.746
267.676
267.894
267.312
265.823
263.342
259.824
255.25
249.624
242.954
235.268
226.623
217.114
206.87
196.004
184.603
172.739
160.482
147.92
135.163
122.334
109.532
96.832
84.3
71.99
59.957
48.238
36.845
25.754
14.925
4.333
-6.022
-16.13
-25.977
-35.562
-44.889
-53.967
-62.784
-71.33
-79.595
-87.573
-95.261
-102.65
-109.717
-116.427
-122.744
-128.643
-134.112
-139.148
-143.752
-147.925
-151.67
-155
-157.935
-160.494
-162.692
-164.547
-166.071
-167.285
-168.211
-168.875
-169.304
-169.522
-169.551
-169.413
-169.129
-168.721
-168.207
-167.602
-166.92
-166.175
-165.383
-164.559
-163.716
-162.869
-162.029
-161.208
-160.415
-159.662
-158.955
-158.3
-157.702
-157.166
-156.695
-156.29
-155.954
-155.686
-155.488
-155.358
-155.296
-155.299
-155.366
-155.494
-155.681
-155.923
-156.217
-156.561
-156.95
-157.381
-157.852
-158.359
-158.9
-159.471
-160.07
-160.693
-161.339
-162.004
-162.685
-163.381
-164.089
-164.807
-165.533
-166.264
-167
-167.739
-168.479
-169.218
-169.955
-170.687
-171.413
-172.13
-172.835
-173.526
-174.198
-174.85
-175.476
-176.074
-176.639
-177.167
-177.653
-178.092
-178.48
-178.811
-179.079
-179.278
-179.404
-179.449
-179.408
-179.274
-179.043
-178.708
-178.263
-177.704
-177.024
-176.219
-175.283
-174.213
-173.005
-171.655
-170.162
-168.525
-166.743
-164.817
-162.749
-160.543
-158.202
-155.731
-153.137
-150.425
-147.605
-144.687
-141.679
-138.594
-135.445
-132.245
-129.012
-125.763
-122.519
-119.297
-116.118
-113.002
-109.969
-107.044
-104.248
-101.602
-99.127
-96.842
-94.768
-92.927
-91.34
-90.022
-88.984
-88.235
-87.786
-87.643
-87.812
-88.296
-89.093
-90.197
-91.607
-93.325
-95.35
-97.681
-100.309
-103.214
-106.381
-109.787
-113.405
-117.205
-121.148
-125.19
-129.283
-133.37
-137.404
-141.343
-145.145
-148.767
-152.153
-155.215
-157.874
-160.092
-161.851
-163.193
-164.139
-164.627
-164.704
-164.566
-164.531
-164.992
-166.15
-167.897
-170.183
-173.211
-177.043
-181.467
-185.744
-188.688
-189.567
-188.398
-185.373
-180.392
-173.387
-164.654
-155.567
-148.501
-145.404
-147.147
-153.767
-165.262
-181.547
-201.865
-223.817
-243.236
-255.502
-256.601
-243.613
-213.807
-164.698
-94.835
-4.701
102.543
221.749
346.953
472.083
590.259
694.163
776.719
831.889
856.259
848.822
810.192
742.534
649.935
538.032
414.048
285.892
160.192
42.539
-62.322
-150.946
-221.073
-271.883
-304.842
-322.655
-327.751
-322.576
-309.351
-290.186
-267.676
-244.015
-219.994
-195.93
-172.323
-149.965
-130.345
-114.447
-102.07
-92.787
-86.497
-83.034
-82.139
-82.885
-83.352
-82.203
-79.065
-73.926
-67.047
-58.748
-49.232
-39.167
-29.824
-22.036
-16.127
-12.141
-9.732
-8.568
-8.455
-9.042
-9.822
-10.452
-10.71
-10.457
-9.741
-8.577
-6.923
-4.767
-2.078
1.171
4.972
9.306
14.153
19.476
25.235
31.406
37.954
44.852
52.067
59.566
67.324
75.317
83.511
91.854
100.275
108.717
117.145
125.539
133.894
142.198
150.436
158.592
166.652
174.599
182.418
190.09
197.598
204.937
212.103
219.1
225.941
232.636
239.203
245.66
252.014
258.274
264.448
270.548
276.599
282.619
288.613
294.576
300.485
306.307
312.015
317.573
322.939
328.055
332.847
337.227
341.129
344.484
347.225
349.272
350.524
350.896
350.326
348.773
346.218
342.641
338.022
332.347
325.617
317.857
309.112
299.435
288.877
277.494
265.351
252.539
239.169
225.35
211.185
196.763
182.175
167.53
152.948
138.552
124.469
110.807
97.659
85.121
73.276
62.196
51.943
42.548
34.028
26.392
19.635
13.747
8.71
4.473
0.97
-1.884
-4.197
-6.061
-7.561
-8.79
-9.823
-10.723
-11.551
-12.347
-13.138
-13.949
-14.792
-15.674
-16.601
-17.555
-18.509
-19.425
-20.243
-20.915
-21.408
-21.684
-21.722
-21.51
-21.036
-20.306
-19.335
-18.136
-16.724
-15.122
-13.344
-11.415
-9.363
-7.222
-5.033
-2.829
-0.634
1.526
3.636
5.684
7.657
9.554
11.377
13.128
14.807
16.415
17.951
19.414
20.808
22.136
23.402
24.609
25.759
26.853
27.894
28.882
29.819
30.704
31.537
32.318
33.048
33.729
34.366
34.962
35.521
36.047
36.546
37.022
37.481
37.928
38.368
38.806
39.249
39.701
40.17
40.661
41.181
41.737
42.335
42.981
43.683
44.448
45.281
46.19
47.181
48.261
49.437
50.715
52.101
53.6
55.219
56.961
58.832
60.836
62.975
65.251
67.667
70.223
72.92
75.755
78.728
81.833
85.067
88.424
91.895
95.471
99.14
102.891
106.709
110.581
114.492
118.425
122.362
126.287
130.182
134.027
137.803
141.488
145.06
148.497
151.777
154.881
157.788
160.478
162.931
165.128
167.052
168.689
170.024
171.042
171.724
172.062
172.054
171.704
171.021
170.017
168.703
167.098
165.235
163.14
160.847
158.393
155.803
153.11
150.357
147.588
144.859
142.228
139.722
137.363
135.195
133.242
131.531
130.098
128.901
127.877
127.008
126.254
125.536
124.81
124.011
123.024
121.86
120.626
119.298
117.81
116.309
114.889
113.293
111.538
109.613
106.716
104.363
104.596
106.126
109.322
110.695
104.166
94.751
87.908
91.285
116.57
156.787
198.702
230.373
236.62
220.992
196.541
173.524
163.042
166.081
180.944
209.111
254.096
321.661
409.801
513.49
624.928
734.016
838.6
935.836
1020.661
1090.234
1138.354
1159.771
1153.575
1119.028
1057.802
975.197
876.256
765.03
642.265
506.143
357.437
203.18
62.031
-45.16
-105.408
-115.429
-92.853
-62.263
-39.802
-36.949
-47.084
-54.65
-51.852
-31.695
3.48
43.139
81.369
113.124
136.019
152.634
164.11
169.608
168.481
159.355
142.671
121.95
100.634
83.983
73.127
70.757
91.929
109.864
76.767
53.538
115.83
189.985
202.455
198.346
211.653
225.196
233.422
239.378
242.27
243.029
242.31
240.764
239.274
237.848
236.534
235.369
233.996
232.08
229.504
226.216
222.251
217.717
212.679
207.231
201.522
195.698
189.872
184.107
178.426
172.846
167.39
162.099
157.012
152.147
147.528
143.211
139.262
135.785
132.872
130.546
128.825
127.731
127.276
127.498
128.434
130.084
132.443
135.497
139.206
143.548
148.492
153.963
159.865
166.076
172.477
179.01
185.653
192.366
199.106
205.809
212.407
218.873
225.191
231.331
237.264
242.944
248.321
253.379
258.113
262.502
266.511
270.053
273.008
275.287
276.826
277.571
277.472
276.45
274.416
271.321
267.14
261.858
255.462
247.923
239.222
229.396
218.529
206.734
194.147
180.874
167.001
152.624
137.844
122.774
107.53
92.195
76.836
61.532
46.378
31.489
16.955
2.817
-10.927
-24.301
-37.333
-50.043
-62.457
-74.612
-86.554
-98.326
-109.961
-121.479
-132.917
-144.328
-155.796
-167.431
-179.329
-191.571
-204.232
-217.365
-231.017
-245.225
-260
-275.348
-291.276
-307.799
-324.947
-342.744
-361.187
-380.255
-399.908
-420.076
-440.683
-461.636
-482.814
-504.118
-525.464
-546.779
-568.019
-589.134
-610.064
-630.745
-651.101
-671.066
-690.588
-709.622
-728.124
-746.074
-763.461
-780.3
-796.631
-812.479
-827.85
-842.743
-857.137
-871.016
-884.374
-897.198
-909.476
-921.198
-932.349
-942.917
-952.896
-962.27
-971.016
-979.101
-986.479
-993.118
-998.995
-1004.094
-1008.407
-1011.93
-1014.656
-1016.59
-1017.74
-1018.116
-1017.728
-1016.585
-1014.696
-1012.074
-1008.738
-1004.709
-1000.014
-994.678
-988.724
-982.178
-975.065
-967.41
-959.239
-950.574
-941.439
-931.858
-921.856
-911.459
-900.696
-889.592
-878.174
-866.467
-854.5
-842.298
-829.886
-817.288
-804.529
-791.631
-778.618
-765.512
-752.336
-739.11
-725.855
-712.592
-699.337
-686.112
-672.933
-659.819
-646.785
-633.848
-621.026
-608.335
-595.792
-583.416
-571.221
-559.226
-547.447
-535.901
-524.602
-513.565
-502.802
-492.325
-482.144
-472.274
-462.723
-453.504
-444.628
-436.103
-427.937
-420.138
-412.708
-405.647
-398.953
-392.62
-386.646
-381.033
-375.783
-370.898
-366.377
-362.214
-358.399
-354.913
-351.73
-348.809
-346.106
-343.573
-341.164
-338.837
-336.551
-334.263
-331.923
-329.471
-326.839
-323.962
-320.781
-317.242
-313.313
-308.991
-304.294
-299.282
-294.029
-288.598
-283.066
-277.529
-272.075
-266.833
-261.938
-257.493
-253.671
-250.689
-248.678
-247.681
-247.526
-247.773
-247.953
-247.606
-246.181
-243.125
-237.988
-230.521
-221.172
-210.997
-201.079
-192.501
-186
-181.975
-180.825
-182.4
-185.152
-186.465
-183.2
-171.775
-149.579
-114.731
-64.643
2.514
86.438
185.596
295.481
408.535
520.556
628.61
729.744
824.95
908.352
968.191
995.111
978.007
916.26
822.228
708.466
589.232
473.081
359.393
249.1
144.723
50.535
-26.903
-84.368
-121.894
-141.123
-144.564
-134.066
-112.253
-82.582
-48.362
-12.702
22.324
55.673
85.889
111.039
130.354
143.952
152.476
157.21
159.062
158.562
156.959
156.153
157.36
161.118
167.433
175.631
185.139
195.593
206.188
215.749
223.506
229.08
232.414
233.898
233.923
232.784
230.961
229.029
227.389
226.329
226.052
226.596
227.996
230.296
233.455
237.415
242.143
247.596
253.732
260.507
267.84
275.64
283.835
292.353
301.128
310.084
319.121
328.152
337.125
346.008
354.791
363.456
371.98
380.35
388.568
396.644
404.586
412.386
420.021
427.479
434.753
441.846
448.777
455.544
462.138
468.55
474.759
480.757
486.55
492.137
497.516
502.701
507.71
512.573
517.343
522.047
526.693
531.282
535.79
540.202
544.506
548.666
552.649
556.413
559.889
563.015
565.726
567.92
569.499
570.36
570.364
569.414
567.434
564.359
560.157
554.795
548.234
540.466
531.501
521.353
510.07
497.703
484.293
469.939
454.743
438.815
422.306
405.349
388.058
370.553
352.941
335.335
317.873
300.685
283.869
267.527
251.741
236.585
222.158
208.514
195.685
183.701
172.552
162.228
152.731
144.044
136.134
128.959
122.443
116.492
111.046
106.041
101.418
97.121
93.072
89.21
85.499
81.905
78.412
75.007
71.667
68.377
65.149
61.997
58.954
56.072
53.375
50.879
48.602
46.552
44.749
43.203
41.909
40.851
40.013
39.377
38.933
38.666
38.549
38.55
38.635
38.76
38.899
39.028
39.126
39.177
39.166
39.081
38.919
38.685
38.38
38.006
37.562
37.048
36.471
35.836
35.153
34.428
33.669
32.882
32.073
31.249
30.414
29.572
28.726
27.877
27.028
26.183
25.346
24.521
23.712
22.922
22.156
21.416
20.707
20.031
19.389
18.784
18.215
17.686
17.197
16.747
16.339
15.972
15.646
15.361
15.118
14.916
14.756
14.637
14.559
14.523
14.53
14.58
14.675
14.817
15.006
15.246
15.538
15.884
16.287
16.749
17.273
17.86
18.513
19.235
20.028
20.895
21.837
22.858
23.959
25.142
26.407
27.755
29.187
30.702
32.298
33.974
35.728
37.556
39.455
41.42
43.446
45.526
47.653
49.819
52.012
54.221
56.431
58.628
60.796
62.917
64.974
66.948
68.823
70.583
72.213
73.698
75.022
76.168
77.117
77.853
78.36
78.625
78.634
78.375
77.841
77.029
75.939
74.569
72.914
70.96
68.69
66.096
63.17
59.911
56.332
52.445
48.277
43.871
39.275
34.539
29.714
24.835
19.944
15.088
10.323
5.732
1.396
-2.615
-6.236
-9.423
-12.168
-14.472
-16.376
-17.967
-19.313
-20.511
-21.69
-22.956
-24.457
-26.353
-28.758
-31.879
-35.995
-41.255
-47.686
-55.087
-62.934
-70.699
-77.963
-84.154
-88.649
-91.073
-91.338
-90.072
-88.636
-88.353
-90.228
-94.981
-103.061
-114.431
-128.32
-142.639
-153.995
-158.627
-152.991
-134.221
-99.869
-48.04
21.913
108.97
210.201
321.157
436.774
551.902
660.706
756.953
834.99
889.874
918.211
918.599
890.569
834.788
753.987
652.5
535.856
410.725
283.567
159.953
45.542
-54.761
-137.663
-201.233
-245.502
-272.218
-283.467
-281.359
-268.761
-248.843
-224.73
-199.295
-174.201
-150.258
-128.402
-109.876
-95.633
-85.898
-80.201
-77.71
-77.843
-80.207
-84.034
-87.857
-90.202
-90.258
-87.793
-83.08
-76.593
-68.706
-60.061
-51.778
-44.799
-39.641
-36.513
-35.202
-35.35
-36.686
-38.786
-41.104
-43.27
-45.045
-46.295
-47.043
-47.27
-46.915
-45.966
-44.399
-42.186
-39.32
-35.779
-31.563
-26.717
-21.299
-15.376
-9.011
-2.235
4.918
12.416
20.232
28.318
36.622
45.09
53.64
62.204
70.736
79.197
87.57
95.852
104.037
112.126
120.128
128.041
135.855
143.562
151.142
158.584
165.884
173.042
180.067
186.963
193.721
200.333
206.78
213.037
219.078
224.871
230.377
235.562
240.395
244.849
248.898
252.52
255.69
258.381
260.568
262.222
263.312
263.813
263.708
262.986
261.644
259.691
257.132
253.978
250.248
245.953
241.101
235.694
229.721
223.171
216.047
208.364
200.147
191.429
182.225
172.549
162.418
151.831
140.796
129.319
117.385
104.997
92.191
79.017
65.561
51.928
38.195
24.43
10.691
-2.975
-16.504
-29.828
-42.892
-55.625
-67.956
-79.809
-91.075
-101.672
-111.562
-120.731
-129.212
-137.065
-144.328
-151.028
-157.196
-162.847
-168.011
-172.718
-176.98
-180.823
-184.284
-187.411
-190.282
-192.967
-195.497
-197.89
-200.134
-202.194
-204.056
-205.714
-207.155
-208.384
-209.406
-210.23
-210.883
-211.392
-211.774
-212.037
-212.176
-212.185
-212.074
-211.864
-211.581
-211.266
-210.947
-210.651
-210.409
-210.243
-210.168
-210.198
-210.332
-210.568
-210.905
-211.347
-211.897
-212.56
-213.337
-214.226
-215.221
-216.317
-217.505
-218.779
-220.126
-221.536
-222.999
-224.507
-226.051
-227.628
-229.228
-230.843
-232.466
-234.088
-235.7
-237.293
-238.856
-240.381
-241.858
-243.279
-244.635
-245.92
-247.128
-248.252
-249.287
-250.229
-251.072
-251.815
-252.452
-252.982
-253.401
-253.709
-253.902
-253.98
-253.942
-253.787
-253.515
-253.127
-252.624
-252.007
-251.277
-250.436
-249.485
-248.427
-247.262
-245.992
-244.621
-243.15
-241.582
-239.922
-238.172
-236.337
-234.42
-232.426
-230.36
-228.226
-226.028
-223.771
-221.461
-219.104
-216.706
-214.275
-211.817
-209.342
-206.86
-204.384
-201.926
-199.497
-197.111
-194.783
-192.525
-190.352
-188.276
-186.308
-184.461
-182.747
-181.182
-179.781
-178.557
-177.523
-176.694
-176.079
-175.691
-175.535
-175.615
-175.931
-176.485
-177.281
-178.334
-179.657
-181.257
-183.139
-185.304
-187.744
-190.447
-193.392
-196.538
-199.842
-203.263
-206.758
-210.297
-213.847
-217.364
-220.798
-224.08
-227.138
-229.918
-232.361
-234.42
-236.078
-237.333
-238.218
-238.81
-239.176
-239.39
-239.552
-239.754
-240.11
-240.764
-241.829
-243.469
-245.919
-249.32
-253.728
-259.05
-264.905
-270.854
-276.491
-281.252
-284.507
-285.836
-284.986
-282.237
-278.615
-275.164
-272.865
-272.72
-275.431
-281.385
-290.517
-301.541
-311.795
-318.234
-317.474
-306.153
-281.467
-240.669
-181.783
-104.613
-10.848
96.313
212.247
331.635
448.789
556.889
649.197
719.916
764.446
780.249
766.58
723.887
654.203
561.77
452.061
331.542
207.158
84.711
-30.607
-133.844
-221.275
-290.71
-341.256
-373.802
-390.386
-392.702
-382.872
-363.927
-338.884
-310.703
-282.105
-254.702
-229.595
-208.393
-192.336
-181.644
-176.043
-174.656
-176.167
-179.676
-184.231
-188.22
-190.228
-189.524
-185.787
-179.281
-170.722
-160.674
-149.86
-139.427
-130.255
-122.817
-117.346
-113.682
-111.464
-110.413
-110.124
-110.035
-109.795
-109.222
-108.205
-106.786
-104.985
-102.745
-100.06
-96.952
-93.386
-89.311
-84.681
-79.446
-73.61
-67.232
-60.363
-53.053
-45.334
-37.216
-28.714
-19.854
-10.659
-1.158
8.613
18.61
28.77
39.008
49.263
59.498
69.686
79.819
89.889
99.874
109.759
119.522
129.128
138.54
147.728
156.662
165.329
173.736
181.892
189.822
197.54
205.044
212.326
219.38
226.185
232.729
239.004
245.007
250.762
256.307
261.649
266.785
271.691
276.313
280.603
284.501
287.926
290.824
293.147
294.854
295.939
296.394
296.187
295.283
293.61
291.079
287.642
283.273
277.959
271.723
264.582
256.569
247.768
238.244
228.045
217.209
205.725
193.591
180.844
167.53
153.738
139.588
125.17
110.575
95.903
81.242
66.693
52.356
38.272
24.491
11.083
-1.871
-14.241
-25.907
-36.793
-46.832
-55.993
-64.271
-71.66
-78.163
-83.824
-88.693
-92.841
-96.358
-99.287
-101.67
-103.563
-105.028
-106.161
-107.054
-107.767
-108.351
-108.848
-109.285
-109.693
-110.092
-110.469
-110.801
-111.054
-111.177
-111.148
-110.959
-110.593
-110.043
-109.29
-108.317
-107.13
-105.74
-104.16
-102.401
-100.473
-98.389
-96.179
-93.875
-91.515
-89.14
-86.781
-84.46
-82.198
-80.012
-77.913
-75.912
-74.011
-72.206
-70.494
-68.874
-67.345
-65.908
-64.558
-63.286
-62.085
-60.947
-59.865
-58.832
-57.84
-56.883
-55.955
-55.051
-54.167
-53.3
-52.446
-51.599
-50.753
-49.903
-49.041
-48.162
-47.26
-46.326
-45.355
-44.341
-43.278
-42.162
-40.989
-39.754
-38.453
-37.083
-35.64
-34.122
-32.526
-30.849
-29.088
-27.243
-25.31
-23.288
-21.176
-18.972
-16.674
-14.283
-11.797
-9.215
-6.538
-3.764
-0.895
2.069
5.127
8.279
11.523
14.856
18.277
21.783
25.369
29.034
32.771
36.576
40.445
44.371
48.347
52.367
56.424
60.509
64.613
68.726
72.839
76.942
81.023
85.069
89.066
93
96.854
100.612
104.258
107.773
111.14
114.342
117.364
120.191
122.81
125.205
127.364
129.27
130.909
132.27
133.342
134.115
134.583
134.74
134.587
134.129
133.367
132.303
130.931
129.243
127.236
124.906
122.258
119.303
116.057
112.542
108.797
104.863
100.787
96.616
92.388
88.147
83.939
79.818
75.86
72.143
68.738
65.714
63.121
60.977
59.292
58.044
57.174
56.633
56.344
56.192
56.071
55.843
55.349
54.467
53.003
50.678
47.323
42.883
37.488
31.585
25.649
20.072
15.409
12.287
11.082
11.941
14.427
17.327
19.392
19.575
16.847
10.455
0.238
-13.352
-28.693
-42.71
-51.887
-52.599
-41.171
-14.396
30.181
93.977
176.764
276.212
388.533
508.823
630.991
748.451
854.547
942.599
1006.557
1042.294
1047.14
1021
967.401
888.864
787.928
667.124
526.607
374.036
222.991
86.904
-18.827
-90.129
-134.794
-160.728
-178.127
-190.804
-193.961
-186.074
-167.273
-140.025
-110.358
-81.121
-52.929
-26.575
-2.602
17.737
33.396
44.734
52.617
57.372
59.239
58.575
56.365
54.552
54.451
56.308
59.968
65.08
71.287
78.38
85.721
92.067
96.646
99.218
99.813
98.839
96.671
93.536
89.849
86.177
82.91
80.33
78.602
77.712
77.695
78.602
80.407
83.075
86.556
90.782
95.702
101.267
107.403
114.034
121.088
128.499
136.216
144.168
152.284
160.492
168.711
176.887
184.983
192.962
200.803
208.496
216.036
223.433
230.705
237.867
244.925
251.879
258.72
265.446
272.054
278.539
284.894
291.092
297.107
302.924
308.528
313.909
319.057
323.951
328.569
332.895
336.914
340.627
344.026
347.096
349.833
352.238
354.336
356.186
357.819
359.243
360.458
361.443
362.177
362.65
362.83
362.663
362.102
361.089
359.579
357.555
354.975
351.785
347.905
343.211
337.608
331.05
323.495
314.926
305.341
294.721
283.097
270.552
257.159
243.01
228.191
212.764
196.819
180.479
163.891
147.245
130.731
114.487
98.649
83.344
68.681
54.791
41.76
29.608
18.361
8.027
-1.394
-9.884
-17.45
-24.144
-30.032
-35.215
-39.815
-43.914
-47.595
-50.941
-54.026
-56.944
-59.764
-62.513
-65.212
-67.879
-70.524
-73.169
-75.828
-78.478
-81.094
-83.635
-86.045
-88.292
-90.352
-92.2
-93.818
-95.185
-96.286
-97.128
-97.728
-98.104
-98.271
-98.245
-98.039
-97.684
-97.214
-96.666
-96.081
-95.49
-94.918
-94.389
-93.924
-93.537
-93.245
-93.054
-92.964
-92.976
-93.094
-93.319
-93.655
-94.099
-94.647
-95.293
-96.031
-96.856
-97.763
-98.748
-99.804
-100.928
-102.114
-103.359
-104.66
-106.011
-107.406
-108.837
-110.298
-111.779
-113.275
-114.775
-116.273
-117.759
-119.226
-120.666
-122.071
-123.434
-124.747
-126.003
-127.195
-128.317
-129.363
-130.327
-131.206
-131.993
-132.684
-133.276
-133.765
-134.147
-134.419
-134.58
-134.628
-134.562
-134.382
-134.088
-133.682
-133.166
-132.543
-131.816
-130.99
-130.069
-129.06
-127.969
-126.804
-125.573
-124.286
-122.953
-121.585
-120.198
-118.804
-117.418
-116.057
-114.736
-113.472
-112.281
-111.178
-110.179
-109.296
-108.546
-107.941
-107.499
-107.234
-107.162
-107.296
-107.649
-108.231
-109.051
-110.11
-111.41
-112.95
-114.734
-116.767
-119.061
-121.62
-124.45
-127.555
-130.929
-134.557
-138.417
-142.47
-146.675
-150.988
-155.369
-159.781
-164.187
-168.546
-172.81
-176.919
-180.808
-184.415
-187.68
-190.544
-192.976
-194.98
-196.59
-197.883
-198.936
-199.803
-200.564
-201.315
-202.165
-203.262
-204.753
-206.752
-209.436
-213.054
-217.745
-223.516
-230.133
-237.028
-243.594
-249.31
-253.582
-255.776
-255.53
-252.874
-248.509
-243.885
-240.527
-239.597
-242.018
-248.502
-259.073
-272.791
-287.404
-299.275
-304.287
-298.706
-279.224
-242.747
-187.273
-112.313
-19.271
88.146
204.792
325.019
442.644
550.623
642.223
711.466
753.702
766.686
749.772
703.535
630.275
534.314
421.355
298.203
171.846
48.133
-67.391
-169.664
-254.874
-320.728
-366.914
-394.943
-407.053
-405.3
-392.33
-371.37
-345.765
-318.697
-292.145
-267.02
-244.112
-224.565
-209.257
-198.297
-191.089
-186.57
-183.986
-182.947
-182.797
-182.316
-180.281
-176.055
-169.569
-161.257
-151.68
-141.251
-130.604
-120.738
-112.49
-106.309
-102.325
-100.316
-99.932
-100.901
-102.823
-105.137
-107.44
-109.471
-111.069
-112.202
-112.804
-112.754
-111.975
-110.451
-108.173
-105.145
-101.374
-96.856
-91.629
-85.768
-79.351
-72.457
-65.136
-57.421
-49.347
-40.966
-32.349
-23.572
-14.722
-5.861
2.964
11.719
20.383
28.952
37.433
45.835
54.171
62.446
70.644
78.747
86.731
94.568
102.249
109.775
117.159
124.421
131.576
138.625
145.557
152.343
158.952
165.362
171.551
177.5
183.212
188.684
193.925
198.961
203.798
208.418
212.783
216.821
220.449
223.608
226.251
228.346
229.872
230.791
231.069
230.682
229.59
227.755
225.129
221.64
217.238
211.917
205.699
198.65
190.866
182.418
173.371
163.788
153.72
143.228
132.377
121.21
109.785
98.168
86.437
74.698
63.046
51.538
40.214
29.083
18.13
7.36
-3.219
-13.604
-23.779
-33.727
-43.433
-52.861
-61.98
-70.771
-79.226
-87.351
-95.155
-102.631
-109.767
-116.542
-122.925
-128.898
-134.447
-139.552
-144.206
-148.409
-152.163
-155.484
-158.393
-160.908
-163.043
-164.812
-166.227
-167.307
-168.072
-168.542
-168.743
-168.697
-168.43
-167.968
-167.338
-166.561
-165.662
-164.658
-163.568
-162.409
-161.198
-159.953
-158.688
-157.421
-156.165
-154.934
-153.742
-152.6
-151.519
-150.507
-149.57
-148.714
-147.944
-147.261
-146.669
-146.168
-145.757
-145.436
-145.202
-145.054
-144.988
-144.999
-145.085
-145.239
-145.456
-145.731
-146.056
-146.425
-146.832
-147.269
-147.73
-148.208
-148.695
-149.186
-149.674
-150.151
-150.613
-151.052
-151.462
-151.838
-152.173
-152.464
-152.705
-152.892
-153.02
-153.087
-153.088
-153.021
-152.883
-152.672
-152.385
-152.019
-151.573
-151.045
-150.434
-149.737
-148.954
-148.083
-147.125
-146.078
-144.944
-143.722
-142.415
-141.023
-139.548
-137.994
-136.363
-134.658
-132.884
-131.045
-129.145
-127.191
-125.189
-123.145
-121.066
-118.963
-116.846
-114.727
-112.619
-110.535
-108.49
-106.498
-104.575
-102.735
-100.989
-99.351
-97.833
-96.449
-95.215
-94.146
-93.254
-92.552
-92.051
-91.761
-91.693
-91.85
-92.231
-92.836
-93.667
-94.729
-96.039
-97.611
-99.451
-101.565
-103.951
-106.599
-109.502
-112.635
-115.956
-119.422
-122.986
-126.604
-130.247
-133.871
-137.428
-140.853
-144.063
-146.98
-149.539
-151.683
-153.378
-154.607
-155.369
-155.696
-155.655
-155.328
-154.828
-154.28
-153.804
-153.548
-153.643
-154.27
-155.703
-158.122
-161.594
-166.038
-171.099
-176.37
-181.527
-186.093
-189.46
-191.246
-191.223
-189.669
-187.638
-186.149
-186.07
-188.294
-193.39
-201.565
-212.648
-225.311
-236.854
-244.305
-244.417
-233.941
-210.282
-170.942
-114.049
-39.389
51.5
155.707
268.917
386.089
501.864
609.723
703.059
775.998
823.641
843.046
833.079
793.811
726.923
636.36
527.423
406.618
281.145
157.096
39.909
-65.235
-154.426
-225.319
-276.874
-309.939
-326.643
-328.752
-318.41
-298.66
-272.49
-242.852
-212.553
-183.309
-156.302
-133.268
-115.579
-103.556
-97.046
-95.256
-96.841
-100.842
-106.221
-111.238
-114.399
-114.954
-112.559
-107.481
-100.49
-92.174
-83.294
-75.06
-68.354
-63.624
-61.092
-60.556
-61.6
-63.905
-66.999
-70.235
-73.192
-75.586
-77.197
-77.999
-77.954
-76.997
-75.159
-72.506
-69.067
-64.884
-59.99
-54.398
-48.182
-41.433
-34.23
-26.67
-18.828
-10.778
-2.617
5.577
13.742
21.83
29.816
37.681
45.403
52.975
60.405
67.701
74.874
81.936
88.884
95.722
102.45
109.07
115.576
121.962
128.212
134.312
140.254
146.03
151.63
157.035
162.222
167.175
171.9
176.407
180.704
184.805
188.725
192.484
196.131
199.697
203.199
206.649
210.033
213.328
216.515
219.57
222.457
225.135
227.542
229.596
231.233
232.374
232.933
232.822
231.916
230.114
227.345
223.54
218.662
212.699
205.645
197.511
188.331
178.14
166.983
154.943
142.096
128.542
114.401
99.794
84.876
69.804
54.719
39.776
25.108
10.814
-3.016
-16.305
-28.992
-41.002
-52.255
-62.715
-72.354
-81.16
-89.149
-96.329
-102.739
-108.439
-113.504
-118.027
-122.089
-125.74
-129.019
-131.963
-134.607
-137.007
-139.225
-141.295
-143.24
-145.08
-146.824
-148.49
-150.077
-151.566
-152.913
-154.066
-154.989
-155.665
-156.092
-156.269
-156.193
-155.856
-155.249
-154.381
-153.266
-151.916
-150.342
-148.554
-146.568
-144.415
-142.137
-139.778
-137.373
-134.948
-132.519
-130.106
-127.723
-125.387
-123.105
-120.88
-118.715
-116.616
-114.587
-112.637
-110.767
-108.977
-107.26
-105.612
-104.03
-102.51
-101.051
-99.65
-98.304
-97.011
-95.772
-94.589
-93.459
-92.382
-91.353
-90.369
-89.426
-88.522
-87.65
-86.808
-85.99
-85.193
-84.413
-83.647
-82.893
-82.146
-81.402
-80.657
-79.908
-79.151
-78.382
-77.596
-76.79
-75.959
-75.1
-74.208
-73.281
-72.312
-71.299
-70.236
-69.12
-67.945
-66.706
-65.399
-64.018
-62.56
-61.02
-59.394
-57.677
-55.866
-53.957
-51.946
-49.83
-47.604
-45.265
-42.81
-40.235
-37.539
-34.719
-31.774
-28.704
-25.508
-22.188
-18.746
-15.183
-11.502
-7.708
-3.805
0.202
4.306
8.5
12.776
17.126
21.537
25.999
30.497
35.017
39.543
44.06
48.549
52.993
57.376
61.68
65.891
69.994
73.972
77.808
81.485
84.986
88.295
91.398
94.283
96.938
99.353
101.527
103.458
105.146
106.588
107.772
108.684
109.316
109.66
109.715
109.487
108.987
108.233
107.261
106.112
104.83
103.46
102.035
100.592
99.174
97.831
96.638
95.672
95.003
94.699
94.809
95.353
96.341
97.751
99.517
101.581
103.858
106.232
108.605
110.843
112.799
114.358
115.316
115.401
114.435
112.344
109.271
105.661
101.989
98.683
96.312
95.504
96.728
100.192
105.378
111.041
115.806
118.45
118.028
113.858
105.634
93.77
80.093
67.82
60.899
63.431
78.896
110.334
160.301
230.143
319.34
425.281
543.428
667.986
792.932
911.692
1017.254
1103.086
1163.667
1195.156
1195.943
1166.26
1107.666
1023.511
918.889
800.182
674.572
549.087
429.814
321.903
229.571
155.742
101.717
66.798
48.878
45.257
53.209
70.227
93.62
120.444
148.254
175.828
202.565
228.077
251.675
272.039
288.506
301.418
311.28
318.316
322.71
324.651
324.985
325.477
327.266
330.618
335.489
341.607
348.713
356.664
364.873
372.19
377.89
381.741
383.778
384.389
383.936
382.665
380.98
379.459
378.53
378.467
379.433
381.393
384.302
388.163
392.928
398.529
404.908
411.993
419.701
427.975
436.748
445.929
455.442
465.196
475.08
485.014
494.931
504.786
514.567
524.262
533.852
543.325
552.682
561.922
571.053
580.071
588.948
597.675
606.255
614.703
623.052
631.323
639.523
647.66
655.734
663.745
671.703
679.599
687.412
695.139
702.785
710.373
717.957
725.558
733.167
740.768
748.316
755.761
763.052
770.112
776.849
783.189
789.064
794.422
799.24
803.471
807.063
809.955
812.057
813.304
813.67
813.13
811.687
809.374
806.229
802.327
797.769
792.622
786.936
780.745
774.042
766.827
759.109
750.883
742.187
733.059
723.523
713.629
703.365
692.697
681.685
670.295
658.679
647.051
635.114
622.841
609.838
595.645
581.549
568.311
558.059
550.368
544.265
553.246
549.843
476.281
417.61
492.329
574.639
523.274
448.246
449.855
469.347
468.78
465.991
464.055
459.967
455.379
450.73
446.422
442.044
437.009
431.36
425.019
417.935
410.117
401.519
392.122
381.952
371.057
359.465
347.192
334.251
320.648
306.397
291.525
276.059
260.026
243.479
226.484
209.118
191.466
173.586
155.504
137.235
118.78
100.151
81.382
62.487
43.464
24.284
4.886
-14.805
-34.881
-55.477
-76.773
-98.965
-122.261
-146.826
-172.777
-200.219
-229.237
-259.929
-292.411
-326.759
-363.007
-401.149
-441.131
-482.866
-526.242
-571.063
-617.068
-663.949
-711.359
-758.991
-806.576
-853.839
-900.508
-946.278
-990.802
-1033.768
-1074.898
-1113.926
-1150.623
-1184.772
-1216.173
-1244.72
-1270.393
-1293.223
-1313.301
-1330.7
-1345.473
-1357.706
-1367.508
-1375.041
-1380.517
-1384.146
-1386.125
-1386.684
-1386.059
-1384.508
-1382.296
-1379.616
-1376.593
-1373.314
-1369.829
-1366.191
-1362.463
-1358.683
-1354.854
-1350.951
-1346.923
-1342.713
-1338.275
-1333.53
-1328.378
-1322.698
-1316.36
-1309.292
-1301.471
-1292.901
-1283.616
-1273.663
-1263.093
-1251.984
-1240.446
-1228.604
-1216.598
-1204.575
-1192.672
-1181.028
-1169.796
-1159.143
-1149.222
-1140.151
-1132.02
-1124.891
-1118.796
-1113.749
-1109.74
-1106.727
-1104.632
-1103.35
-1102.743
-1102.649
-1102.914
-1103.384
-1103.901
-1104.305
-1104.437
-1104.148
-1103.298
-1101.756
-1099.414
-1096.179
-1091.981
-1086.804
-1080.656
-1073.585
-1065.696
-1057.108
-1047.961
-1038.425
-1028.669
-1018.87
-1009.227
-999.898
-991.086
-983.079
-976.032
-970.006
-964.909
-960.343
-955.908
-951.288
-945.971
-939.335
-930.988
-920.634
-908.445
-895.358
-882.189
-869.587
-858.315
-848.816
-841.194
-835.32
-830.071
-823.027
-811.608
-792.987
-764.133
-722.634
-666.294
-593.283
-503.179
-397.233
-277.744
-148.374
-13.97
120.278
248.267
363.353
459.475
531.531
575.561
589.307
572.353
525.803
452.974
359.247
251.107
135.629
19.87
-89.643
-187.188
-268.073
-329.459
-370.8
-393.207
-398.879
-390.497
-371.122
-344.349
-314.037
-283.58
-255.131
-229.839
-208.453
-191.788
-180.451
-174.216
-172.118
-172.849
-175.408
-179.196
-183.49
-187.101
-188.872
-188.238
-185.191
-180.158
-173.632
-165.96
-157.692
-149.75
-142.944
-137.715
-134.197
-132.229
-131.578
-132.065
-133.384
-135.061
-136.694
-138.039
-138.982
-139.536
-139.71
-139.461
-138.751
-137.57
-135.929
-133.823
-131.222
-128.061
-124.254
-119.775
-114.645
-108.905
-102.608
-95.789
-88.459
-80.656
-72.459
-63.928
-55.118
-46.069
-36.764
-27.212
-17.453
-7.524
2.516
12.636
22.849
33.165
43.587
54.128
64.787
75.596
86.65
98.002
109.681
121.706
134.032
146.647
159.582
172.839
186.412
200.285
214.396
228.704
243.177
257.75
272.349
286.871
301.151
315.056
328.473
341.272
353.37
364.663
375.012
384.323
392.526
399.555
405.379
409.963
413.262
415.279
416.036
415.575
413.984
411.35
407.759
403.341
398.2
392.445
386.208
379.586
372.656
365.503
358.188
350.768
343.309
335.85
328.416
321.038
313.722
306.47
299.276
292.104
284.932
277.746
270.531
263.29
256.036
248.777
241.537
234.35
227.242
220.245
213.396
206.719
200.244
194.006
188.04
182.389
177.091
172.17
167.645
163.53
159.831
156.552
153.688
151.226
149.151
147.45
146.107
145.109
144.438
144.075
143.998
144.186
144.614
145.262
146.108
147.13
148.305
149.614
151.034
152.549
154.14
155.786
157.467
159.166
160.864
162.543
164.188
165.782
167.312
168.765
170.13
171.398
172.562
173.615
174.552
175.368
176.063
176.634
177.083
177.409
177.616
177.706
177.683
177.553
177.321
176.991
176.572
176.069
175.491
174.844
174.137
173.378
172.574
171.734
170.866
169.978
169.077
168.171
167.266
166.368
165.484
164.618
163.775
162.96
162.174
161.421
160.702
160.02
159.375
158.767
158.196
157.662
157.163
156.698
156.265
155.863
155.488
155.138
154.811
154.505
154.215
153.941
153.679
153.427
153.183
152.945
152.711
152.481
152.253
152.026
151.801
151.577
151.356
151.139
150.926
150.721
150.527
150.345
150.18
150.035
149.915
149.822
149.763
149.74
149.758
149.823
149.937
150.108
150.337
150.631
150.993
151.427
151.936
152.523
153.19
153.939
154.77
155.682
156.676
157.749
158.899
160.124
161.419
162.779
164.198
165.669
167.185
168.734
170.304
171.882
173.455
175.005
176.518
177.977
179.364
180.665
181.864
182.949
183.905
184.717
185.368
185.843
186.128
186.21
186.078
185.72
185.128
184.297
183.227
181.919
180.373
178.584
176.537
174.221
171.629
168.758
165.611
162.196
158.525
154.62
150.522
146.273
141.921
137.51
133.072
128.649
124.29
120.056
116.03
112.287
108.89
105.898
103.345
101.248
99.614
98.418
97.604
97.097
96.792
96.57
96.313
95.875
95.131
93.91
91.945
89.062
85.195
80.422
75.094
69.606
64.269
59.529
55.949
53.875
53.505
54.552
55.968
56.74
55.997
52.849
46.745
37.5
25.297
11.436
-1.46
-10.523
-12.586
-4.434
16.486
52.572
105.614
175.822
261.739
360.688
468.629
580.577
691.316
794.812
884.606
954.659
1000.15
1017.586
1006.178
968.378
905.608
819.71
712.771
584.744
443.246
302.072
174.563
76.099
11.217
-28.007
-49.295
-62.686
-72.979
-76.351
-72.243
-61.566
-46.168
-30.822
-17.757
-6.788
2.267
10.035
17.309
24.539
31.95
39.469
46.735
53.311
59.114
64.528
69.712
74.593
79.313
84.214
89.52
95.313
101.318
106.806
111.341
114.85
117.214
118.331
118.211
116.895
114.682
112.161
109.708
107.489
105.651
104.245
103.368
103.212
103.838
105.196
107.257
109.981
113.352
117.4
122.095
127.354
133.098
139.233
145.701
152.486
159.549
166.839
174.29
181.804
189.314
196.786
204.187
211.499
218.706
225.788
232.748
239.607
246.38
253.076
259.688
266.189
272.551
278.751
284.783
290.654
296.37
301.935
307.352
312.623
317.754
322.734
327.55
332.182
336.605
340.804
344.782
348.553
352.147
355.605
358.939
362.145
365.207
368.079
370.714
373.049
375.003
376.512
377.526
377.993
377.887
377.177
375.813
373.74
370.884
367.156
362.505
356.9
350.327
342.815
334.411
325.183
315.244
304.691
293.605
282.065
270.125
257.84
245.286
232.54
219.689
206.84
194.08
181.479
169.11
157.01
145.201
133.685
122.433
111.418
100.636
90.087
79.787
69.756
60.003
50.54
41.379
32.517
23.954
15.693
7.726
0.061
-7.287
-14.301
-20.947
-27.196
-33.033
-38.451
-43.447
-48.029
-52.204
-55.984
-59.39
-62.44
-65.149
-67.533
-69.607
-71.386
-72.893
-74.15
-75.182
-76.016
-76.676
-77.184
-77.563
-77.833
-78.014
-78.122
-78.171
-78.175
-78.147
-78.103
-78.054
-78.015
-77.997
-78.01
-78.065
-78.171
-78.335
-78.562
-78.858
-79.225
-79.666
-80.182
-80.774
-81.441
-82.182
-82.997
-83.882
-84.835
-85.853
-86.932
-88.068
-89.255
-90.49
-91.767
-93.081
-94.428
-95.802
-97.198
-98.613
-100.042
-101.481
-102.925
-104.37
-105.812
-107.246
-108.669
-110.076
-111.464
-112.828
-114.166
-115.474
-116.75
-117.99
-119.192
-120.353
-121.47
-122.54
-123.561
-124.53
-125.444
-126.299
-127.095
-127.827
-128.493
-129.092
-129.619
-130.073
-130.451
-130.75
-130.967
-131.1
-131.145
-131.101
-130.965
-130.736
-130.412
-129.993
-129.477
-128.867
-128.162
-127.364
-126.474
-125.493
-124.427
-123.278
-122.051
-120.753
-119.389
-117.969
-116.504
-115.007
-113.49
-111.967
-110.452
-108.959
-107.505
-106.108
-104.783
-103.544
-102.406
-101.384
-100.496
-99.762
-99.198
-98.817
-98.632
-98.653
-98.892
-99.36
-100.063
-101.006
-102.188
-103.609
-105.28
-107.214
-109.417
-111.895
-114.645
-117.652
-120.904
-124.384
-128.055
-131.885
-135.828
-139.834
-143.864
-147.867
-151.805
-155.646
-159.334
-162.821
-166.05
-168.931
-171.414
-173.493
-175.166
-176.503
-177.56
-178.285
-178.807
-179.402
-180.306
-181.857
-184.189
-187.097
-190.667
-195.274
-200.893
-207.24
-213.756
-219.332
-223.467
-226.463
-228.124
-227.92
-225.762
-221.82
-217.188
-214.102
-213.961
-216.999
-223.53
-233.822
-247.706
-264.564
-282.11
-296.266
-303.093
-299.345
-282.189
-249.152
-198.102
-127.726
-38.749
65.781
181.364
302.634
423.93
539.06
641.206
723.729
781.029
809.225
806.538
773.012
710.034
620.771
510.271
385.006
252.322
119.507
-7.095
-122.12
-221.098
-300.915
-360.129
-399.236
-420.281
-425.978
-419.045
-402.206
-378.48
-350.968
-322.345
-294.249
-267.527
-242.907
-221.438
-204.168
-191.379
-182.594
-177.028
-174.05
-173.228
-173.874
-174.646
-174.129
-171.598
-166.969
-160.609
-153.058
-144.729
-136.202
-128.477
-122.425
-118.467
-116.701
-116.858
-118.515
-121.354
-124.957
-128.76
-132.35
-135.451
-137.858
-139.523
-140.41
-140.421
-139.544
-137.809
-135.226
-131.833
-127.671
-122.76
-117.167
-110.978
-104.269
-97.116
-89.576
-81.695
-73.541
-65.186
-56.704
-48.18
-39.67
-31.215
-22.856
-14.611
-6.488
1.507
9.383
17.159
24.84
32.432
39.933
47.331
54.624
61.81
68.89
75.872
82.756
89.529
96.182
102.695
109.046
115.209
121.155
126.845
132.247
137.331
142.069
146.434
150.402
153.945
157.037
159.65
161.761
163.347
164.388
164.865
164.762
164.065
162.766
160.857
158.335
155.197
151.443
147.073
142.093
136.51
130.336
123.582
116.264
108.401
100.016
91.133
81.78
71.985
61.78
51.199
40.277
29.05
17.558
5.838
-6.069
-18.122
-30.281
-42.503
-54.749
-66.977
-79.148
-91.221
-103.159
-114.925
-126.482
-137.797
-148.838
-159.575
-169.979
-180.025
-189.69
-198.953
-207.796
-216.203
-224.16
-231.659
-238.69
-245.25
-251.336
-256.947
-262.087
-266.76
-270.972
-274.733
-278.054
-280.948
-283.428
-285.511
-287.213
-288.553
-289.551
-290.226
-290.599
-290.692
-290.527
-290.126
-289.511
-288.705
-287.729
-286.607
-285.358
-284.004
-282.564
-281.059
-279.506
-277.923
-276.326
-274.73
-273.15
-271.599
-270.087
-268.628
-267.229
-265.899
-264.647
-263.477
-262.396
-261.408
-260.516
-259.723
-259.03
-258.438
-257.948
-257.558
-257.267
-257.074
-256.976
-256.969
-257.05
-257.214
-257.458
-257.776
-258.163
-258.613
-259.121
-259.682
-260.29
-260.939
-261.624
-262.339
-263.079
-263.837
-264.609
-265.39
-266.173
-266.954
-267.728
-268.49
-269.236
-269.959
-270.657
-271.323
-271.953
-272.541
-273.083
-273.574
-274.008
-274.381
-274.689
-274.926
-275.089
-275.172
-275.173
-275.087
-274.911
-274.64
-274.271
-273.8
-273.223
-272.538
-271.741
-270.83
-269.801
-268.654
-267.384
-265.991
-264.472
-262.827
-261.053
-259.151
-257.119
-254.958
-252.668
-250.251
-247.709
-245.046
-242.264
-239.37
-236.368
-233.264
-230.064
-226.775
-223.404
-219.959
-216.45
-212.886
-209.277
-205.634
-201.972
-198.304
-194.648
-191.019
-187.434
-183.907
-180.457
-177.102
-173.861
-170.753
-167.794
-165.004
-162.4
-160
-157.824
-155.886
-154.2
-152.774
-151.613
-150.725
-150.115
-149.786
-149.74
-149.969
-150.469
-151.238
-152.274
-153.572
-155.126
-156.924
-158.948
-161.178
-163.594
-166.165
-168.861
-171.645
-174.471
-177.29
-180.057
-182.735
-185.298
-187.718
-189.963
-191.977
-193.698
-195.061
-196.023
-196.591
-196.771
-196.541
-195.948
-195.124
-194.302
-193.888
-194.269
-195.543
-197.734
-200.894
-204.842
-209.342
-213.954
-217.562
-218.991
-217.658
-213.251
-205.765
-195.739
-183.607
-170.119
-157.347
-147.663
-142.901
-144.476
-152.694
-166.903
-186.488
-210.07
-234.403
-255.273
-268.06
-268.146
-252.355
-218.401
-164.127
-88.756
6.45
118.355
241.801
370.563
498.7
619.728
726.6
813.057
873.783
905.199
906.244
877.162
819.307
736.131
632.669
514.966
390.065
264.579
144.009
33.812
-61.466
-138.947
-196.963
-235.754
-257.161
-263.237
-256.294
-239.418
-215.711
-188.236
-160.021
-132.779
-107.552
-85.526
-67.449
-53.738
-44.474
-38.918
-35.878
-34.639
-34.395
-34.024
-32.743
-29.724
-24.427
-17.076
-8.247
1.512
11.42
20.56
28.36
34.309
38.105
39.865
39.853
38.438
36.172
33.66
31.308
29.411
28.187
27.741
28.19
29.61
31.985
35.246
39.345
44.258
49.971
56.468
63.678
71.494
79.81
88.529
97.574
106.879
116.36
125.916
135.462
144.94
154.32
163.59
172.739
181.754
190.627
199.364
207.98
216.493
224.909
233.227
241.438
249.529
257.5
265.361
273.115
280.761
288.285
295.669
302.899
309.96
316.839
323.53
330.029
336.339
342.488
348.506
354.432
360.316
366.18
372.032
377.879
383.715
389.539
395.341
401.097
406.775
412.344
417.757
422.957
427.872
432.381
436.358
439.676
442.193
443.806
444.432
443.985
442.392
439.598
435.566
430.289
423.778
416.03
407.051
396.875
385.57
373.272
360.137
346.314
331.968
317.249
302.301
287.291
272.394
257.746
243.46
229.633
216.342
203.699
191.824
180.8
170.671
161.428
153.036
145.47
138.7
132.681
127.348
122.609
118.351
114.503
111.02
107.856
104.971
102.301
99.756
97.281
94.85
92.454
90.098
87.776
85.477
83.213
81.021
78.95
77.062
75.389
73.937
72.717
71.732
70.997
70.532
70.34
70.404
70.708
71.235
71.97
72.904
74.012
75.253
76.584
77.959
79.342
80.712
82.047
83.325
84.529
85.642
86.656
87.569
88.379
89.079
89.664
90.128
90.47
90.695
90.806
90.811
90.713
90.516
90.225
89.845
89.381
88.834
88.208
87.503
86.724
85.874
84.961
83.988
82.964
81.894
80.785
79.645
78.48
77.297
76.103
74.902
73.7
72.504
71.317
70.146
68.996
67.872
66.779
65.722
64.707
63.736
62.816
61.949
61.14
60.393
59.711
59.097
58.555
58.089
57.702
57.397
57.177
57.045
57.003
57.052
57.193
57.428
57.757
58.179
58.694
59.3
59.996
60.781
61.652
62.605
63.637
64.741
65.914
67.147
68.433
69.761
71.122
72.504
73.894
75.277
76.641
77.968
79.244
80.454
81.582
82.614
83.535
84.328
84.979
85.471
85.787
85.911
85.828
85.523
84.986
84.211
83.191
81.922
80.4
78.617
76.565
74.239
71.633
68.745
65.576
62.135
58.446
54.543
50.464
46.251
41.94
37.565
33.164
28.778
24.449
20.229
16.173
12.33
8.757
5.507
2.613
0.093
-2.085
-3.989
-5.695
-7.275
-8.78
-10.273
-11.842
-13.6
-15.681
-18.218
-21.311
-25.105
-29.824
-35.576
-42.305
-49.726
-57.233
-64.169
-70.015
-74.185
-76.02
-75.174
-71.717
-66.347
-60.511
-55.709
-53.041
-53.451
-57.748
-66.019
-77.387
-89.673
-99.326
-102.396
-95.32
-74.795
-37.643
18.182
93.176
185.838
292.387
407.739
526.253
641.531
746.242
833.426
897.02
932.546
937.901
912.435
856.926
774.18
669.172
548.289
418.821
287.923
161.667
45.891
-54.397
-135.75
-196.469
-237.059
-259.628
-266.766
-260.957
-245.08
-222.271
-195.72
-168.205
-141.017
-114.66
-89.6
-66.642
-46.974
-31.154
-18.785
-9.266
-2.497
1.534
2.948
2.517
1.978
2.467
4.186
7.099
11.022
15.779
21.33
27.143
32.028
35.236
36.527
35.907
33.763
30.446
26.151
21.294
16.487
12.191
8.768
6.418
5.111
4.829
5.577
7.307
9.965
13.492
17.796
22.8
28.442
34.646
41.345
48.46
55.896
63.552
71.308
79.074
86.8
94.449
102.007
109.456
116.773
123.957
131.027
138.001
144.898
151.727
158.484
165.178
171.824
178.44
185.047
191.654
198.253
204.836
211.386
217.887
224.321
230.658
236.863
242.901
248.742
254.357
259.721
264.804
269.575
274.001
278.051
281.697
284.912
287.669
289.943
291.71
292.95
293.645
293.78
293.343
292.32
290.7
288.475
285.641
282.193
278.131
273.459
268.181
262.307
255.849
248.822
241.246
233.142
224.532
215.443
205.904
195.947
185.604
174.909
163.9
152.615
141.094
129.376
117.504
105.518
93.46
81.373
69.297
57.273
45.34
33.538
21.903
10.472
-0.723
-11.648
-22.275
-32.576
-42.525
-52.101
-61.284
-70.056
-78.403
-86.315
-93.782
-100.798
-107.361
-113.468
-119.122
-124.327
-129.09
-133.419
-137.324
-140.819
-143.919
-146.64
-148.999
-151.017
-152.713
-154.108
-155.225
-156.087
-156.715
-157.134
-157.366
-157.435
-157.363
-157.173
-156.885
-156.522
-156.101
-155.643
-155.165
-154.683
-154.211
-153.765
-153.357
-152.997
-152.698
-152.466
-152.311
-152.238
-152.252
-152.357
-152.557
-152.851
-153.241
-153.725
-154.301
-154.967
-155.718
-156.551
-157.46
-158.437
-159.478
-160.573
-161.716
-162.896
-164.107
-165.339
-166.583
-167.831
-169.074
-170.304
-171.512
-172.692
-173.836
-174.936
-175.985
-176.977
-177.905
-178.763
-179.544
-180.243
-180.854
-181.374
-181.796
-182.118
-182.335
-182.444
-182.442
-182.326
-182.095
-181.747
-181.28
-180.695
-179.993
-179.173
-178.239
-177.193
-176.038
-174.779
-173.419
-171.964
-170.419
-168.789
-167.08
-165.299
-163.453
-161.549
-159.596
-157.604
-155.586
-153.555
-151.524
-149.508
-147.522
-145.584
-143.708
-141.911
-140.203
-138.598
-137.108
-135.747
-134.53
-133.472
-132.586
-131.883
-131.374
-131.069
-130.977
-131.102
-131.439
-131.987
-132.745
-133.719
-134.926
-136.381
-138.094
-140.071
-142.312
-144.81
-147.558
-150.532
-153.69
-156.985
-160.366
-163.79
-167.227
-170.636
-173.97
-177.165
-180.133
-182.796
-185.089
-186.958
-188.369
-189.307
-189.774
-189.811
-189.491
-188.913
-188.208
-187.507
-186.953
-186.7
-186.884
-187.707
-189.461
-192.347
-196.442
-201.616
-207.458
-213.502
-219.354
-224.49
-228.269
-230.223
-230.137
-228.483
-226.493
-225.517
-226.749
-231.11
-239.244
-251.415
-267.18
-284.672
-300.628
-311.096
-311.967
-299.791
-271.589
-224.783
-158.081
-72.06
30.669
145.555
266.975
389.229
505.915
610.069
695.362
756.298
789.052
792.151
765.366
709.603
627.909
525.069
407.054
280.974
153.642
30.806
-81.822
-179.324
-258.476
-317.542
-356.798
-378.256
-384.264
-377.159
-360.012
-336.181
-308.906
-281.036
-254.143
-228.912
-206.11
-186.809
-171.777
-161.032
-153.93
-149.568
-147.388
-147.104
-148.114
-149.133
-148.85
-146.621
-142.376
-136.501
-129.484
-121.622
-113.405
-105.765
-99.51
-95.055
-92.53
-91.681
-92.131
-93.603
-95.7
-97.907
-99.858
-101.3
-102.061
-102.091
-101.338
-99.741
-97.322
-94.135
-90.221
-85.617
-80.347
-74.443
-67.976
-61.032
-53.689
-46.006
-38.015
-29.757
-21.29
-12.69
-4.043
4.598
13.203
21.747
30.217
38.596
46.865
55.031
63.109
71.104
79.013
86.821
94.495
102.014
109.367
116.546
123.558
130.403
137.072
143.557
149.843
155.925
161.808
167.496
172.991
178.309
183.463
188.482
193.406
198.261
203.064
207.826
212.541
217.198
221.78
226.262
230.621
234.82
238.798
242.477
245.764
248.561
250.776
252.302
253.024
252.846
251.679
249.444
246.081
241.542
235.79
228.807
220.58
211.109
200.435
188.632
175.809
162.085
147.579
132.43
116.788
100.799
84.617
68.397
52.285
36.436
20.991
6.077
-8.177
-21.653
-34.264
-45.957
-56.718
-66.546
-75.447
-83.442
-90.566
-96.861
-102.391
-107.23
-111.455
-115.166
-118.457
-121.408
-124.106
-126.638
-129.071
-131.456
-133.818
-136.169
-138.518
-140.87
-143.226
-145.576
-147.9
-150.168
-152.345
-154.383
-156.24
-157.889
-159.301
-160.449
-161.317
-161.898
-162.197
-162.233
-162.023
-161.584
-160.936
-160.098
-159.101
-157.974
-156.752
-155.475
-154.173
-152.872
-151.597
-150.368
-149.199
-148.104
-147.089
-146.152
-145.296
-144.52
-143.825
-143.213
-142.681
-142.223
-141.836
-141.514
-141.251
-141.042
-140.882
-140.767
-140.691
-140.65
-140.64
-140.658
-140.7
-140.758
-140.828
-140.902
-140.972
-141.032
-141.075
-141.092
-141.076
-141.02
-140.917
-140.76
-140.543
-140.26
-139.904
-139.471
-138.955
-138.351
-137.655
-136.863
-135.972
-134.979
-133.881
-132.677
-131.364
-129.942
-128.41
-126.768
-125.019
-123.163
-121.203
-119.143
-116.988
-114.741
-112.41
-110
-107.518
-104.973
-102.373
-99.726
-97.044
-94.336
-91.615
-88.896
-86.193
-83.522
-80.9
-78.343
-75.869
-73.497
-71.241
-69.117
-67.139
-65.32
-63.677
-62.224
-60.979
-59.952
-59.157
-58.604
-58.303
-58.262
-58.484
-58.966
-59.706
-60.702
-61.957
-63.483
-65.29
-67.384
-69.765
-72.43
-75.37
-78.572
-82.013
-85.649
-89.438
-93.329
-97.277
-101.249
-105.201
-109.083
-112.833
-116.366
-119.601
-122.47
-124.912
-126.887
-128.374
-129.363
-129.877
-129.973
-129.726
-129.244
-128.648
-128.055
-127.607
-127.435
-127.714
-128.718
-130.641
-133.57
-137.444
-141.927
-146.616
-151.179
-155.142
-157.903
-159.05
-158.329
-155.978
-153.041
-150.616
-149.685
-151.256
-155.999
-164.194
-175.737
-189.365
-202.364
-211.625
-213.696
-205.034
-182.797
-144.414
-87.918
-13.039
78.625
184.213
299.412
418.945
537.319
648.148
744.806
821.508
873.542
897.547
891.837
856.247
792.058
702.679
593.268
470.065
339.863
209.316
84.935
-27.278
-122.403
-197.195
-250.462
-282.855
-295.993
-292.013
-274.256
-246.85
-214.029
-179.769
-146.869
-116.954
-91.564
-72.304
-59.623
-52.958
-51.144
-52.493
-55.758
-60.233
-64.739
-67.592
-67.796
-65.049
-59.56
-52.159
-43.558
-34.177
-24.817
-16.609
-10.264
-6.115
-4.193
-4.112
-5.496
-8.073
-11.38
-14.841
-18.066
-20.782
-22.814
-24.119
-24.616
-24.217
-22.916
-20.753
-17.756
-13.953
-9.365
-4.012
2.036
8.684
15.843
23.434
31.393
39.659
48.152
56.774
65.443
74.102
82.715
91.26
99.711
108.047
116.26
124.362
132.378
140.328
148.222
156.056
163.823
171.514
179.123
186.646
194.069
201.374
208.547
215.581
222.477
229.237
235.855
242.309
248.567
254.601
260.39
265.918
271.172
276.148
280.855
285.314
289.552
293.58
297.388
300.941
304.184
307.058
309.492
311.434
312.846
313.701
313.983
313.69
312.815
311.331
309.191
306.328
302.663
298.144
292.743
286.465
279.331
271.385
262.702
253.354
243.4
232.88
221.803
210.155
197.935
185.175
171.936
158.315
144.422
130.364
116.246
102.169
88.234
74.518
61.056
47.875
35.008
22.512
10.484
-0.951
-11.694
-21.677
-30.857
-39.222
-46.775
-53.534
-59.544
-64.875
-69.615
-73.831
-77.552
-80.798
-83.588
-85.962
-87.994
-89.771
-91.361
-92.816
-94.18
-95.483
-96.757
-98.016
-99.244
-100.401
-101.433
-102.305
-103.007
-103.544
-103.922
-104.141
-104.19
-104.062
-103.761
-103.297
-102.678
-101.91
-100.998
-99.956
-98.813
-97.612
-96.397
-95.204
-94.056
-92.971
-91.963
-91.044
-90.226
-89.513
-88.903
-88.395
-87.987
-87.684
-87.488
-87.398
-87.41
-87.514
-87.703
-87.969
-88.306
-88.707
-89.167
-89.678
-90.237
-90.839
-91.482
-92.164
-92.878
-93.619
-94.379
-95.152
-95.931
-96.709
-97.478
-98.229
-98.957
-99.656
-100.318
-100.94
-101.516
-102.041
-102.511
-102.921
-103.267
-103.545
-103.75
-103.88
-103.929
-103.895
-103.775
-103.566
-103.265
-102.871
-102.38
-101.792
-101.103
-100.312
-99.418
-98.418
-97.312
-96.102
-94.786
-93.367
-91.847
-90.229
-88.515
-86.711
-84.82
-82.848
-80.799
-78.68
-76.496
-74.256
-71.966
-69.635
-67.272
-64.888
-62.496
-60.108
-57.739
-55.403
-53.116
-50.896
-48.757
-46.717
-44.79
-42.99
-41.331
-39.827
-38.493
-37.346
-36.399
-35.666
-35.159
-34.886
-34.857
-35.078
-35.548
-36.265
-37.226
-38.433
-39.894
-41.62
-43.619
-45.896
-48.449
-51.27
-54.345
-57.654
-61.158
-64.817
-68.586
-72.419
-76.281
-80.134
-83.933
-87.629
-91.142
-94.393
-97.307
-99.813
-101.859
-103.428
-104.507
-105.117
-105.32
-105.166
-104.737
-104.15
-103.504
-102.936
-102.597
-102.599
-103.153
-104.547
-106.959
-110.459
-114.887
-119.77
-124.621
-129.041
-132.485
-134.364
-134.276
-132.077
-128.365
-124.48
-121.795
-121.456
-124.292
-130.809
-141.118
-154.63
-169.372
-182.028
-188.726
-185.599
-169.516
-137.846
-88.383
-20.117
66.255
168.121
281.105
399.913
519.26
633.248
735.393
819.719
880.895
915.02
920.392
896.456
843.599
764.274
662.776
544.592
416.558
285.498
157.185
37.659
-67.468
-154.333
-220.567
-265.626
-291.009
-298.624
-290.252
-269.177
-239.385
-204.581
-168.354
-133.194
-100.395
-71.577
-48.759
-32.602
-22.752
-18.318
-17.753
-19.914
-24.126
-29.008
-32.539
-33.488
-31.392
-26.358
-19.197
-10.591
-0.972
8.785
17.444
24.212
28.718
30.932
31.287
30.207
28.006
25.181
22.317
19.817
17.972
16.979
16.873
17.686
19.462
22.161
25.727
30.128
35.321
41.263
47.906
55.164
62.944
71.169
79.762
88.653
97.761
106.984
116.235
125.453
134.599
143.651
152.588
161.387
170.048
178.579
186.998
195.321
203.555
211.695
219.742
227.691
235.532
243.267
250.886
258.379
265.745
272.976
280.062
286.992
293.745
300.306
306.677
312.859
318.849
324.659
330.288
335.755
341.102
346.351
351.521
356.614
361.601
366.453
371.151
375.662
379.955
383.988
387.676
390.946
393.735
395.968
397.575
398.466
398.512
397.611
395.688
392.685
388.589
383.399
377.097
369.693
361.203
351.649
341.114
329.685
317.432
304.456
290.861
276.775
262.378
247.841
233.302
218.888
204.691
190.78
177.254
164.195
151.675
139.779
128.534
117.952
108.059
98.857
90.329
82.447
75.129
68.277
61.83
55.741
49.979
44.536
39.376
34.457
29.749
25.212
20.83
16.608
12.534
8.599
4.812
1.191
-2.222
-5.366
-8.218
-10.787
-13.076
-15.099
-16.853
-18.318
-19.487
-20.358
-20.927
-21.2
-21.172
-20.834
-20.196
-19.281
-18.109
-16.701
-15.046
-13.098
-10.84
-8.275
-5.423
-2.329
0.959
4.396
7.91
11.412
14.822
18.063
21.084
23.851
26.309
28.389
29.997
31.015
31.367
31.014
29.932
28.127
25.633
22.501
18.834
14.764
10.388
5.785
1.004
-3.926
-8.957
-14.022
-19.054
-23.967
-28.703
-33.219
-37.471
-41.442
-45.146
-48.633
-52.006
-55.372
-58.79
-62.286
-65.852
-69.455
-73.064
-76.636
-80.104
-83.413
-86.511
-89.355
-91.927
-94.186
-96.063
-97.466
-98.263
-98.34
-97.637
-96.114
-93.76
-90.596
-86.66
-82.023
-76.804
-71.108
-65.019
-58.609
-51.924
-45.026
-38.002
-30.947
-23.973
-17.18
-10.639
-4.416
1.432
6.872
11.886
16.486
20.719
24.613
28.174
31.4
34.272
36.776
38.914
40.687
42.098
43.149
43.831
44.136
44.058
43.58
42.681
41.331
39.491
37.147
34.308
30.999
27.261
23.137
18.666
13.891
8.862
3.631
-1.746
-7.199
-12.658
-18.048
-23.299
-28.339
-33.125
-37.657
-41.961
-46.112
-50.192
-54.259
-58.403
-62.734
-67.366
-72.453
-78.142
-84.539
-91.817
-100.222
-109.882
-120.806
-132.764
-145.186
-157.469
-169.113
-179.528
-188.069
-194.314
-198.13
-200.031
-201.305
-203.326
-207.105
-213.374
-222.694
-235.115
-250.009
-265.575
-278.558
-285.057
-281.601
-265.456
-233.736
-184.083
-115.501
-28.244
73.76
183.076
294.863
405.666
512.685
617.033
711.7
782.608
818.277
805.696
743.51
645.89
526.67
399.071
271.888
141.686
6.468
-126.2
-248.933
-349.82
-418.616
-460.419
-481.552
-488.702
-490.497
-486.548
-476.416
-462.871
-447.158
-432.701
-422.09
-415.074
-411.303
-410.146
-411.113
-413.553
-416.231
-418.112
-418.299
-416.503
-413.143
-408.335
-401.827
-393.829
-384.856
-375.574
-367.04
-359.868
-354.093
-349.854
-347.285
-346.309
-346.826
-348.523
-350.781
-353.194
-355.54
-357.599
-359.286
-360.541
-361.229
-361.296
-360.727
-359.425
-357.34
-354.451
-350.708
-346.128
-340.752
-334.619
-327.815
-320.442
-312.579
-304.312
-295.695
-286.751
-277.532
-268.091
-258.494
-248.84
-239.192
-229.59
-220.077
-210.677
-201.404
-192.269
-183.256
-174.332
-165.487
-156.711
-148.007
-139.394
-130.885
-122.494
-114.242
-106.133
-98.167
-90.348
-82.667
-75.119
-67.709
-60.437
-53.312
-46.351
-39.556
-32.934
-26.501
-20.248
-14.163
-8.217
-2.353
3.456
9.21
14.897
20.483
25.926
31.184
36.198
40.889
45.193
49.049
52.409
55.252
57.53
59.184
60.138
60.292
59.58
57.976
55.47
52.076
47.831
42.781
37.013
30.65
23.794
16.535
8.947
1.082
-6.988
-15.175
-23.382
-31.499
-39.434
-47.121
-54.498
-61.512
-68.134
-74.347
-80.164
-85.632
-90.779
-95.612
-100.134
-104.328
-108.188
-111.72
-114.927
-117.814
-120.387
-122.644
-124.589
-126.232
-127.57
-128.595
-129.288
-129.617
-129.564
-129.124
-128.297
-127.092
-125.522
-123.596
-121.333
-118.757
-115.892
-112.758
-109.377
-105.766
-101.948
-97.947
-93.791
-89.51
-85.131
-80.678
-76.175
-71.644
-67.107
-62.581
-58.082
-53.623
-49.216
-44.873
-40.607
-36.43
-32.35
-28.377
-24.519
-20.781
-17.171
-13.69
-10.342
-7.127
-4.044
-1.091
1.732
4.431
7.01
9.472
11.825
14.074
16.226
18.288
20.267
22.172
24.01
25.789
27.517
29.203
30.852
32.472
34.07
35.65
37.22
38.784
40.346
41.912
43.484
45.068
46.665
48.28
49.915
51.572
53.253
54.959
56.691
58.447
60.23
62.037
63.867
65.721
67.595
69.487
71.397
73.321
75.258
77.202
79.153
81.105
83.056
85.003
86.94
88.866
90.776
92.667
94.537
96.382
98.198
99.983
101.732
103.442
105.109
106.728
108.296
109.808
111.257
112.64
113.952
115.185
116.335
117.394
118.356
119.214
119.96
120.586
121.082
121.438
121.643
121.687
121.558
121.244
120.734
120.018
119.086
117.929
116.539
114.908
113.026
110.884
108.474
105.788
102.821
99.569
96.027
92.196
88.083
83.692
79.032
74.108
68.917
63.456
57.727
51.732
45.479
38.982
32.259
25.339
18.261
11.072
3.815
-3.462
-10.724
-17.933
-25.045
-32.009
-38.756
-45.213
-51.314
-56.996
-62.209
-66.932
-71.157
-74.906
-78.243
-81.226
-83.929
-86.452
-88.877
-91.316
-93.907
-96.762
-100.056
-104.037
-108.868
-114.634
-121.257
-128.375
-135.556
-142.382
-148.274
-152.588
-154.857
-154.794
-152.689
-149.599
-146.675
-145.078
-145.982
-150.263
-158.484
-170.702
-185.699
-200.785
-212.716
-217.764
-212.156
-192.647
-156.081
-100.147
-24.383
69.623
178.577
297.579
420.821
541.991
653.587
748.244
819.608
862.68
874.659
854.604
803.041
722.431
617.673
494.93
361.386
224.575
90.846
-33.786
-143.709
-234.984
-305.47
-354.465
-383.163
-393.713
-387.902
-368.483
-339.156
-303.403
-264.573
-225.572
-188.165
-153.891
-124.916
-102.706
-87.561
-79.156
-76.441
-78.119
-83.24
-90.601
-98.194
-104.066
-107.072
-106.747
-103.33
-97.425
-89.555
-80.391
-71.053
-62.752
-56.199
-51.637
-48.927
-47.668
-47.498
-48.066
-48.868
-49.36
-49.23
-48.356
-46.709
-44.358
-41.312
-37.515
-32.988
-27.797
-21.991
-15.625
-8.747
-1.384
6.388
14.459
22.74
31.167
39.723
48.433
57.291
66.271
75.337
84.432
93.518
102.579
111.593
120.545
129.435
138.264
147.046
155.817
164.603
173.405
182.205
190.95
199.591
208.1
216.463
224.683
232.76
240.686
248.458
256.078
263.547
270.858
278.004
284.959
291.693
298.201
304.494
310.602
316.579
322.443
328.182
333.777
339.196
344.397
349.34
353.964
358.192
361.975
365.272
368.046
370.281
371.925
372.903
373.128
372.486
370.894
368.321
364.741
360.144
354.557
348.011
340.56
332.295
323.263
313.487
303.006
291.85
280.087
267.829
255.199
242.347
229.425
216.545
203.81
191.318
179.123
167.267
155.788
144.689
134.019
123.863
114.277
105.314
97.007
89.337
82.274
75.772
69.745
64.126
58.863
53.903
49.228
44.829
40.69
36.806
33.152
29.668
26.313
23.053
19.849
16.7
13.607
10.584
7.678
4.93
2.362
-0.006
-2.176
-4.162
-5.968
-7.606
-9.09
-10.416
-11.589
-12.615
-13.495
-14.243
-14.879
-15.427
-15.928
-16.422
-16.937
-17.497
-18.119
-18.814
-19.594
-20.467
-21.433
-22.495
-23.657
-24.923
-26.299
-27.786
-29.384
-31.088
-32.892
-34.788
-36.769
-38.83
-40.964
-43.165
-45.427
-47.746
-50.118
-52.538
-54.999
-57.494
-60.015
-62.552
-65.097
-67.639
-70.17
-72.68
-75.158
-77.594
-79.981
-82.308
-84.565
-86.744
-88.836
-90.831
-92.723
-94.502
-96.163
-97.697
-99.099
-100.361
-101.477
-102.442
-103.251
-103.898
-104.379
-104.691
-104.831
-104.798
-104.591
-104.208
-103.652
-102.924
-102.028
-100.966
-99.744
-98.368
-96.847
-95.189
-93.403
-91.501
-89.494
-87.398
-85.228
-83
-80.73
-78.439
-76.143
-73.865
-71.622
-69.434
-67.32
