43.939
45.125
46.266
47.352
48.374
49.323
50.19
50.965
51.642
52.21
52.664
52.997
53.202
53.275
53.209
53.001
52.648
52.148
51.498
50.699
49.75
48.651
47.406
46.017
44.487
42.822
41.027
39.108
37.073
34.93
32.689
30.359
27.949
25.472
22.937
20.357
17.742
15.104
12.454
9.805
7.168
4.553
1.974
-0.561
-3.038
-5.449
-7.782
-10.029
-12.179
-14.225
-16.157
-17.969
-19.654
-21.204
-22.613
-23.878
-24.993
-25.955
-26.761
-27.41
-27.901
-28.236
-28.416
-28.443
-28.322
-28.056
-27.651
-27.113
-26.448
-25.663
-24.768
-23.771
-22.681
-21.51
-20.271
-18.977
-17.643
-16.284
-14.913
-13.547
-12.204
-10.901
-9.658
-8.489
-7.412
-6.442
-5.595
-4.89
-4.342
-3.962
-3.76
-3.744
-3.922
-4.306
-4.906
-5.72
-6.748
-7.983
-9.42
-11.065
-12.923
-14.993
-17.271
-19.75
-22.421
-25.282
-28.325
-31.526
-34.857
-38.274
-41.729
-45.191
-48.63
-52.027
-55.372
-58.612
-61.684
-64.523
-67.058
-69.25
-71.102
-72.579
-73.623
-74.273
-74.609
-74.856
-75.389
-76.402
-77.92
-79.933
-82.413
-85.366
-88.768
-92.237
-94.962
-96.328
-96.101
-94.358
-91.403
-87.362
-82.313
-76.802
-72.112
-69.662
-70.407
-74.766
-82.563
-93.525
-107.451
-123.561
-139.975
-154.029
-162.949
-164.01
-155.153
-134.832
-101.043
-52.278
11.457
89.087
177.253
270.303
364.659
457.55
546.423
631.42
707.042
763.348
792.201
784.612
740.188
669.122
581.665
487.642
393.35
296.92
197.379
100.028
10.268
-63.763
-115.33
-147.785
-165.438
-172.917
-175.803
-173.555
-165.796
-153.94
-138.393
-121.706
-105.732
-90.652
-77.222
-65.678
-56.111
-48.865
-43.682
-39.96
-37.407
-35.606
-33.889
-31.773
-28.705
-24.284
-18.616
-12.078
-5.049
1.926
8.187
13.335
17.035
19.087
19.589
18.735
16.784
14.149
11.288
8.496
5.994
3.937
2.395
1.492
1.32
1.886
3.165
5.123
7.738
11.004
14.913
19.403
24.392
29.791
35.515
41.517
47.748
54.153
60.663
67.19
73.674
80.083
86.394
92.595
98.671
104.611
110.421
116.132
121.771
127.361
132.918
138.442
143.935
149.402
154.845
160.263
165.65
170.989
176.265
181.469
186.588
191.605
196.496
201.223
205.756
210.079
214.183
218.069
221.75
225.241
228.578
231.813
234.993
238.16
241.346
244.561
247.815
251.115
254.467
257.881
261.361
264.892
268.441
271.954
275.352
278.539
281.389
283.744
285.452
286.365
286.353
285.317
283.168
279.822
275.205
269.238
261.841
252.965
242.585
230.71
217.398
202.738
186.864
169.951
152.19
133.785
114.929
95.799
76.566
57.407
38.499
20.037
2.235
-14.711
-30.618
-45.34
-58.782
-70.877
-81.607
-90.988
-99.063
-105.902
-111.574
-116.145
-119.689
-122.287
-124.033
-125.048
-125.481
-125.483
-125.212
-124.799
-124.34
-123.915
-123.574
-123.345
-123.241
-123.256
-123.377
-123.596
-123.903
-124.285
-124.726
-125.19
-125.624
-125.971
-126.164
-126.153
-125.909
-125.414
-124.662
-123.659
-122.419
-120.968
-119.337
-117.554
-115.643
-113.627
-111.527
-109.369
-107.187
-105.016
-102.892
-100.847
-98.901
-97.07
-95.365
-93.793
-92.356
-91.049
-89.865
-88.797
-87.842
-86.995
-86.255
-85.616
-85.075
-84.622
-84.253
-83.959
-83.734
-83.574
-83.471
-83.421
-83.42
-83.464
-83.55
-83.676
-83.836
-84.027
-84.243
-84.479
-84.733
-85
-85.275
-85.557
-85.841
-86.126
-86.411
-86.694
-86.975
-87.252
-87.526
-87.796
-88.063
-88.327
-88.588
-88.848
-89.107
-89.366
-89.625
-89.887
-90.152
-90.422
-90.697
-90.98
-91.27
-91.57
-91.881
-92.202
-92.534
-92.878
-93.234
-93.6
-93.976
-94.362
-94.755
-95.153
-95.556
-95.96
-96.362
-96.76
-97.15
-97.529
-97.892
-98.237
-98.558
-98.852
-99.115
-99.341
-99.526
-99.666
-99.757
-99.794
-99.772
-99.687
-99.535
-99.312
-99.013
-98.636
-98.178
-97.634
-97.005
-96.288
-95.482
-94.588
-93.606
-92.537
-91.385
-90.152
-88.842
-87.458
-86.006
-84.493
-82.923
-81.304
-79.644
-77.952
-76.24
-74.517
-72.798
-71.095
-69.422
-67.795
-66.227
-64.734
-63.329
-62.024
-60.831
-59.764
-58.835
-58.06
-57.45
-57.018
-56.774
-56.726
-56.884
-57.252
-57.831
-58.62
-59.618
-60.825
-62.25
-63.903
-65.789
-67.914
-70.277
-72.869
-75.681
-78.693
-81.873
-85.188
-88.594
-92.052
-95.529
-98.989
-102.392
-105.691
-108.821
-111.709
-114.298
-116.526
-118.354
-119.769
-120.762
-121.355
-121.607
-121.563
-121.3
-120.924
-120.522
-120.22
-120.153
-120.422
-121.199
-122.719
-125.119
-128.442
-132.55
-137.044
-141.51
-145.615
-148.915
-150.916
-151.292
-149.932
-147.287
-144.412
-142.428
-142.198
-144.338
-149.289
-157.104
-167.283
-178.295
-187.444
-191.486
-187.395
-172.768
-145.25
-102.893
-44.801
28.786
114.924
208.112
304.205
399.918
492.494
581.678
661.791
722.78
756.704
754.586
716.533
653.217
572.857
483.989
390.541
287.672
178.075
70.823
-24.338
-93.59
-133.57
-152.432
-158.228
-160.789
-163.982
-164.287
-160.446
-152.003
-140.225
-128.644
-118.216
-108.444
-99.117
-89.599
-80.117
-71.421
-63.404
-56.177
-50.301
-46.069
-43.685
-42.961
-42.9
-42.546
-41.547
-39.596
-36.498
-32.323
-27.082
-21.102
-15.179
-9.927
-5.643
-2.483
-0.369
0.878
1.384
1.413
1.353
1.456
1.865
2.63
3.688
4.999
6.554
8.31
10.219
12.271
14.471
16.842
19.43
22.237
25.226
28.36
31.595
34.896
38.248
41.654
45.121
48.679
52.376
56.252
60.336
64.626
69.107
73.758
78.546
83.455
88.485
93.633
98.913
104.36
109.993
115.818
121.826
127.969
134.172
140.372
146.513
152.567
158.528
164.39
170.162
175.867
181.53
187.193
192.879
198.573
204.249
209.883
215.447
220.952
226.428
231.889
237.339
242.762
248.119
253.373
258.478
263.345
267.86
271.872
275.23
277.836
279.622
280.536
280.546
279.591
277.609
274.56
270.415
265.156
258.776
251.254
242.574
232.78
221.965
210.276
197.881
184.912
171.469
157.646
143.531
129.234
114.87
100.533
86.314
72.321
58.676
45.537
33.063
21.357
10.472
0.415
-8.834
-17.277
-24.905
-31.719
-37.733
-42.978
-47.493
-51.299
-54.429
-56.943
-58.937
-60.544
-61.901
-63.104
-64.218
-65.284
-66.329
-67.386
-68.485
-69.634
-70.835
-72.083
-73.375
-74.721
-76.121
-77.556
-78.984
-80.341
-81.569
-82.633
-83.515
-84.203
-84.695
-84.988
-85.089
-85.02
-84.806
-84.47
-84.028
-83.492
-82.875
-82.199
-81.496
-80.797
-80.13
-79.514
-78.96
-78.481
-78.081
-77.767
-77.536
-77.378
-77.286
-77.254
-77.277
-77.354
-77.481
-77.651
-77.858
-78.095
-78.357
-78.641
-78.941
-79.254
-79.576
-79.903
-80.235
-80.571
-80.909
-81.249
-81.586
-81.92
-82.249
-82.571
-82.886
-83.192
-83.49
-83.779
-84.06
-84.336
-84.607
-84.876
-85.144
-85.414
-85.688
-85.969
-86.258
-86.557
-86.869
-87.195
-87.537
-87.894
-88.268
-88.658
-89.063
-89.484
-89.92
-90.367
-90.826
-91.294
-91.768
-92.245
-92.723
-93.198
-93.666
-94.122
-94.562
-94.981
-95.373
-95.731
-96.051
-96.325
-96.547
-96.71
-96.808
-96.833
-96.779
-96.639
-96.406
-96.076
-95.642
-95.099
-94.444
-93.671
-92.779
-91.765
-90.629
-89.37
-87.988
-86.484
-84.862
-83.124
-81.274
-79.317
-77.259
-75.108
-72.87
-70.555
-68.173
-65.736
-63.257
-60.751
-58.231
-55.716
-53.221
-50.765
-48.364
-46.035
-43.794
-41.656
-39.639
-37.759
-36.031
-34.473
-33.099
-31.923
-30.956
-30.209
-29.689
-29.402
-29.348
-29.529
-29.947
-30.61
-31.527
-32.705
-34.148
-35.857
-37.825
-40.045
-42.499
-45.159
-47.994
-50.969
-54.047
-57.197
-60.386
-63.578
-66.731
-69.784
-72.675
-75.344
-77.733
-79.798
-81.518
-82.88
-83.898
-84.613
-85.064
-85.311
-85.44
-85.526
-85.673
-86.001
-86.604
-87.63
-89.286
-91.704
-94.949
-98.938
-103.348
-107.792
-111.924
-115.292
-117.402
-117.927
-116.712
-114.033
-110.788
-108.055
-106.81
-107.967
-112.203
-119.71
-130.211
-142.589
-154.5
-162.94
-164.77
-156.944
-136.709
-101.886
-51.013
16.28
97.486
187.617
281.731
375.37
467.246
558.302
644.953
718.648
766.407
774.731
739.907
669.76
577.807
477.552
376.028
271.464
163.376
57.551
-37.634
-110.296
-155.389
-178.931
-188.169
-191.427
-192.809
-189.706
-181.022
-167.168
-149.94
-132.684
-116.788
-102.335
-89.403
-78.009
-68.561
-61.089
-55.061
-50.357
-47.038
-45.151
-44.589
-44.506
-43.931
-42.52
-40.278
-37.27
-33.673
-29.582
-25.236
-21.362
-18.585
-17.151
-17.11
-18.28
-20.364
-23.145
-26.299
-29.347
-31.944
-33.881
-35.027
-35.381
-34.954
-33.729
-31.744
-29.068
-25.75
-21.841
-17.388
-12.427
-7.03
-1.288
4.7
10.838
17.058
23.314
29.565
35.78
41.936
48.021
54.042
60.01
65.933
71.816
77.665
83.487
89.295
95.105
100.931
106.783
112.657
118.546
124.442
130.334
136.213
142.063
147.863
153.593
159.234
164.773
170.211
175.549
180.791
185.955
191.054
196.111
201.161
206.218
211.293
216.388
221.489
226.587
231.661
236.678
241.608
246.41
251.022
255.384
259.423
263.044
266.166
268.701
270.548
271.633
271.894
271.276
269.747
267.285
263.88
259.537
254.266
248.075
240.996
233.07
224.353
214.927
204.856
194.209
183.075
171.528
159.644
147.503
135.174
122.72
110.203
97.689
85.249
72.971
60.935
49.212
37.858
26.913
16.438
6.491
-2.89
-11.67
-19.825
-27.347
-34.224
-40.445
-46.015
-50.954
-55.301
-59.114
-62.461
-65.402
-67.984
-70.258
-72.281
-74.111
-75.796
-77.374
-78.867
-80.295
-81.679
-83.037
-84.378
-85.696
-86.975
-88.186
-89.293
-90.269
-91.096
-91.759
-92.239
-92.526
-92.613
-92.503
-92.212
-91.752
-91.135
-90.373
-89.482
-88.481
-87.398
-86.26
-85.098
-83.938
-82.798
-81.698
-80.652
-79.67
-78.76
-77.926
-77.164
-76.472
-75.852
-75.301
-74.82
-74.407
-74.056
-73.765
-73.528
-73.342
-73.202
-73.106
-73.05
-73.032
-73.049
-73.101
-73.187
-73.305
-73.453
-73.628
-73.828
-74.049
-74.29
-74.546
-74.817
-75.099
-75.39
-75.691
-75.999
-76.314
-76.637
-76.967
-77.303
-77.648
-78.001
-78.362
-78.733
-79.114
-79.506
-79.91
-80.326
-80.755
-81.197
-81.653
-82.122
-82.604
-83.099
-83.607
-84.127
-84.658
-85.2
-85.751
-86.31
-86.877
-87.447
-88.02
-88.593
-89.163
-89.726
-90.28
-90.819
-91.341
-91.84
-92.314
-92.756
-93.163
-93.529
-93.851
-94.123
-94.341
-94.5
-94.594
-94.62
-94.573
-94.449
-94.244
-93.954
-93.576
-93.106
-92.541
-91.879
-91.117
-90.253
-89.285
-88.213
-87.035
-85.752
-84.365
-82.876
-81.286
-79.601
-77.822
-75.954
-74.003
-71.972
-69.867
-67.697
-65.467
-63.185
-60.859
-58.5
-56.117
-53.724
-51.334
-48.958
-46.61
-44.305
-42.057
-39.885
-37.802
-35.822
-33.957
-32.22
-30.624
-29.185
-27.916
-26.825
-25.92
-25.207
-24.695
-24.394
-24.311
-24.443
-24.785
-25.328
-26.073
-27.031
-28.211
-29.614
-31.24
-33.081
-35.132
-37.392
-39.849
-42.471
-45.221
-48.048
-50.902
-53.753
-56.576
-59.358
-62.071
-64.654
-67.029
-69.121
-70.872
-72.259
-73.29
-73.945
-74.182
-74.033
-73.645
-73.309
-73.338
-73.901
-74.972
-76.452
-78.443
-81.113
-84.4
-87.896
-90.918
-92.871
-93.666
-93.594
-92.655
-90.632
-87.548
-83.895
-80.913
-80.089
-82.256
-87.55
-95.995
-107.616
-122.161
-138.678
-154.894
-167.665
-173.894
-170.894
-156.647
-129.335
-87.125
-29.301
43.175
128.145
220.962
316.493
411.827
502.464
585.489
658.937
715.386
749.912
758.26
735.832
687.303
618.411
535.169
445.992
353.608
260.357
169.869
84.681
9.315
-52.666
-100.172
-133.237
-153.398
-162.541
-162.237
-154.626
-142.049
-126.78
-111.043
-96.07
-82.518
-71.123
-62.342
-56.393
-53.26
-52.399
-52.907
-54.251
-55.871
-56.94
-56.929
-55.319
-51.732
-46.308
-39.452
-31.531
-23.131
-15.03
-7.734
-1.69
2.787
5.734
7.268
7.555
6.933
5.799
4.431
3.051
1.786
0.638
-0.357
-1.163
-1.771
-2.149
-2.258
-2.043
-1.416
-0.307
1.318
3.465
6.11
9.211
12.739
16.665
20.962
25.618
30.613
35.928
41.551
47.444
53.565
59.869
66.288
72.778
79.311
85.864
92.428
99.001
105.574
112.141
118.699
125.234
131.724
138.153
144.494
150.735
156.87
162.899
168.829
174.66
180.38
185.985
191.477
196.857
202.131
207.307
212.385
217.377
222.306
227.182
232.017
236.814
241.561
246.244
250.842
255.329
259.684
263.873
267.841
271.524
274.841
277.711
280.062
281.807
282.854
283.126
282.554
281.073
278.638
275.209
270.755
265.262
258.716
251.12
242.505
232.93
222.48
211.251
199.338
186.852
173.915
160.642
147.158
133.589
120.054
106.68
93.587
80.88
68.665
57.043
46.089
35.85
26.347
17.584
9.566
2.28
-4.296
-10.189
-15.445
-20.12
-24.273
-27.983
-31.325
-34.361
-37.161
-39.792
-42.308
-44.75
-47.141
-49.49
-51.807
-54.097
-56.362
-58.598
-60.79
-62.916
-64.949
-66.848
-68.583
-70.133
-71.475
-72.592
-73.473
-74.114
-74.52
-74.712
-74.704
-74.513
-74.158
-73.657
-73.035
-72.322
-71.547
-70.745
-69.945
-69.169
-68.439
-67.772
-67.184
-66.684
-66.281
-65.973
-65.763
-65.652
-65.64
-65.729
-65.918
-66.203
-66.579
-67.041
-67.584
-68.205
-68.897
-69.656
-70.477
-71.356
-72.289
-73.271
-74.298
-75.364
-76.462
-77.585
-78.726
-79.877
-81.032
-82.183
-83.323
-84.446
-85.546
-86.618
-87.656
-88.656
-89.613
-90.524
-91.385
-92.194
-92.947
-93.644
-94.282
-94.862
-95.383
-95.845
-96.248
-96.593
-96.882
-97.115
-97.294
-97.422
-97.501
-97.534
-97.525
-97.476
-97.393
-97.278
-97.137
-96.973
-96.791
-96.596
-96.391
-96.181
-95.97
-95.76
-95.557
-95.363
-95.181
-95.013
-94.862
-94.728
-94.613
-94.519
-94.444
-94.389
-94.353
-94.336
-94.335
-94.351
-94.38
-94.42
-94.469
-94.523
-94.579
-94.632
-94.679
-94.714
-94.733
-94.731
-94.702
-94.642
-94.545
-94.405
-94.217
-93.975
-93.674
-93.309
-92.874
-92.365
-91.777
-91.106
-90.349
-89.504
-88.569
-87.543
-86.425
-85.216
-83.917
-82.529
-81.055
-79.497
-77.861
-76.151
-74.374
-72.535
-70.644
-68.712
-66.75
-64.77
-62.786
-60.812
-58.861
-56.95
-55.093
-53.305
-51.598
-49.988
-48.489
-47.116
-45.885
-44.814
-43.915
-43.201
-42.682
-42.367
-42.266
-42.38
-42.712
-43.265
-44.04
-45.045
-46.294
-47.791
-49.542
-51.547
-53.795
-56.275
-58.967
-61.837
-64.852
-67.978
-71.172
-74.408
-77.648
-80.852
-83.983
-86.983
-89.793
-92.373
-94.657
-96.595
-98.179
-99.401
-100.29
-100.933
-101.346
-101.548
-101.686
-101.868
-102.25
-103.047
-104.275
-105.959
-108.342
-111.603
-115.679
-120.393
-125.182
-129.344
-132.68
-134.965
-135.751
-134.687
-131.588
-126.967
-122.382
-119.432
-119.108
-121.317
-124.788
-129.809
-137.413
-148.598
-165.27
-183.423
-194.811
-191.742
-164.193
-109.665
-34.346
55.983
151.792
246.656
342.151
436.706
528.819
616.139
688.277
737.883
759.816
749.357
710.87
649.329
570.048
480.944
385.22
286.433
189.089
96.152
12.603
-57.399
-112.317
-151.422
-175.761
-187.534
-188.302
-179.952
-165.147
-146.372
-125.928
-105.864
-87.266
-70.735
-57.281
-47.627
-41.738
-39.333
-39.756
-42.079
-45.773
-50.298
-54.598
-57.783
-59.428
-59.321
-57.634
-54.814
-51.133
-46.991
-43.11
-40.006
-37.916
-36.932
-36.884
-37.483
-38.526
-39.71
-40.612
-40.968
-40.636
-39.552
-37.781
-35.389
-32.401
-28.889
-24.948
-20.643
-16.038
-11.178
-6.082
-0.795
4.62
10.107
15.604
21.076
26.504
31.879
37.196
42.46
47.676
52.854
58.011
63.157
68.303
73.463
78.646
83.86
89.113
94.41
99.756
105.148
110.574
116.015
121.449
126.86
132.233
137.564
142.84
148.045
153.16
158.159
163.031
167.777
172.396
176.89
181.27
185.556
189.784
194.013
198.281
202.607
206.993
211.421
215.882
220.375
224.891
229.423
233.947
238.42
242.808
247.069
251.137
254.921
258.295
261.103
263.223
264.569
265.078
264.705
263.397
261.099
257.774
253.392
247.932
241.379
233.708
224.91
215.024
204.134
192.367
179.889
166.832
153.305
139.415
125.265
110.968
96.642
82.393
68.325
54.56
41.242
28.527
16.546
5.38
-4.932
-14.387
-23.006
-30.799
-37.771
-43.947
-49.356
-54.038
-58.034
-61.384
-64.141
-66.392
-68.258
-69.865
-71.317
-72.684
-74.012
-75.332
-76.666
-78.036
-79.449
-80.901
-82.384
-83.893
-85.429
-86.985
-88.546
-90.073
-91.505
-92.788
-93.886
-94.777
-95.452
-95.906
-96.138
-96.156
-95.981
-95.637
-95.148
-94.533
-93.804
-92.978
-92.08
-91.138
-90.19
-89.265
-88.383
-87.562
-86.814
-86.151
-85.58
-85.103
-84.716
-84.413
-84.192
-84.051
-83.992
-84.013
-84.109
-84.275
-84.508
-84.802
-85.156
-85.564
-86.024
-86.532
-87.085
-87.681
-88.321
-89
-89.717
-90.468
-91.249
-92.055
-92.884
-93.731
-94.59
-95.459
-96.333
-97.209
-98.084
-98.955
-99.818
-100.671
-101.511
-102.336
-103.144
-103.933
-104.701
-105.446
-106.168
-106.864
-107.533
-108.174
-108.785
-109.365
-109.911
-110.424
-110.902
-111.342
-111.743
-112.104
-112.423
-112.7
-112.932
-113.119
-113.26
-113.353
-113.398
-113.395
-113.342
-113.24
-113.086
-112.881
-112.623
-112.313
-111.948
-111.529
-111.055
-110.525
-109.938
-109.294
-108.592
-107.832
-107.011
-106.131
-105.19
-104.189
-103.127
-102.006
-100.827
-99.591
-98.3
-96.956
-95.563
-94.123
-92.64
-91.117
-89.56
-87.973
-86.36
-84.728
-83.081
-81.428
-79.776
-78.135
-76.515
-74.925
-73.376
-71.881
-70.45
-69.096
-67.827
-66.654
-65.586
-64.633
-63.807
-63.119
-62.58
-62.2
-61.986
-61.948
-62.091
-62.421
-62.935
-63.633
-64.514
-65.576
-66.831
-68.287
-69.948
-71.821
-73.905
-76.193
-78.675
-81.335
-84.139
-87.056
-90.049
-93.08
-96.123
-99.147
-102.115
-104.987
-107.702
-110.197
-112.417
-114.31
-115.834
-116.982
-117.75
-118.165
-118.285
-118.16
-117.862
-117.49
-117.132
-116.903
-116.928
-117.299
-118.177
-119.782
-122.242
-125.595
-129.708
-134.185
-138.613
-142.641
-145.811
-147.627
-147.755
-146.086
-143.065
-139.735
-137.239
-136.523
-138.306
-143.102
-151.039
-161.646
-173.406
-183.681
-189.214
-186.838
-173.961
-148.148
-107.436
-50.799
21.527
106.563
198.935
293.358
385.549
473.803
558.008
634.665
696.335
731.678
730.483
690.875
618.722
526.24
423.689
315.165
202.845
88.971
-17.47
-103.971
-162.929
-193.659
-204.992
-208.365
-210.228
-211.808
-209.878
-201.821
-188.535
-172.745
-157.302
-143.289
-130.422
-118.445
-107.394
-97.752
-89.629
-82.615
-76.726
-72.141
-68.954
-67.06
-65.62
-63.657
-60.813
-57.065
-52.459
-47.169
-41.311
-35.137
-29.364
-24.618
-21.15
-19.037
-18.125
-18.167
-19
-20.372
-21.886
-23.26
-24.318
-24.939
-25.105
-24.787
-23.912
-22.466
-20.473
-17.944
-14.908
-11.386
-7.39
-2.965
1.833
6.95
12.339
17.973
23.832
29.885
36.09
42.4
48.756
55.124
61.483
67.813
74.112
80.375
86.602
92.801
98.985
105.158
111.32
117.457
123.543
129.563
135.514
141.395
147.218
152.983
158.676
164.288
169.803
175.212
180.515
185.705
190.775
195.733
200.599
205.403
210.189
214.98
219.776
224.569
229.342
234.082
238.784
243.429
247.988
252.427
256.703
260.774
264.589
268.067
271.105
273.589
275.401
276.452
276.682
276.04
274.487
271.978
268.477
263.962
258.426
251.866
244.283
235.684
226.099
215.606
204.316
192.355
179.846
166.9
153.615
140.088
126.42
112.716
99.08
85.611
72.417
59.604
47.284
35.565
24.525
14.2
4.601
-4.278
-12.44
-19.891
-26.645
-32.723
-38.151
-42.969
-47.214
-50.937
-54.218
-57.132
-59.757
-62.176
-64.444
-66.599
-68.668
-70.666
-72.604
-74.494
-76.335
-78.121
-79.85
-81.514
-83.1
-84.589
-85.938
-87.113
-88.086
-88.829
-89.331
-89.586
-89.591
-89.355
-88.893
-88.221
-87.36
-86.332
-85.153
-83.844
-82.429
-80.934
-79.394
-77.838
-76.288
-74.766
-73.287
-71.865
-70.513
-69.237
-68.038
-66.916
-65.874
-64.913
-64.035
-63.243
-62.535
-61.909
-61.363
-60.894
-60.502
-60.184
-59.938
-59.762
-59.656
-59.616
-59.644
-59.737
-59.894
-60.111
-60.385
-60.712
-61.089
-61.51
-61.971
-62.467
-62.993
-63.545
-64.119
-64.71
-65.312
-65.922
-66.536
-67.149
-67.757
-68.357
-68.945
-69.516
-70.069
-70.599
-71.104
-71.581
-72.027
-72.439
-72.816
-73.156
-73.456
-73.715
-73.93
-74.099
-74.221
-74.292
-74.311
-74.273
-74.179
-74.025
-73.812
-73.539
-73.204
-72.809
-72.354
-71.843
-71.276
-70.651
-69.969
-69.228
-68.428
-67.567
-66.644
-65.654
-64.598
-63.473
-62.284
-61.03
-59.713
-58.33
-56.876
-55.35
-53.756
-52.099
-50.384
-48.618
-46.812
-44.983
-43.157
-41.361
-39.611
-37.916
-36.277
-34.697
-33.181
-31.735
-30.361
-29.054
-27.802
-26.603
-25.456
-24.36
-23.303
-22.255
-21.17
-20.014
-18.77
-17.439
-16.036
-14.573
-13.072
-11.561
-10.088
-8.712
-7.487
-6.447
-5.618
-5.031
-4.731
-4.781
-5.263
-6.235
-7.73
-9.761
-12.323
-15.4
-18.953
-22.914
-27.182
-31.643
-36.203
-40.793
-45.373
-49.879
-54.216
-58.274
-61.925
-65.068
-67.668
-69.678
-71.028
-71.742
-71.919
-71.757
-71.636
-71.896
-72.655
-73.979
-75.927
-78.392
-81.232
-84.142
-86.349
-87.066
-85.938
-82.81
-77.736
-71.115
-63.306
-54.853
-47.144
-41.849
-40.121
-42.849
-50.365
-62.235
-78.049
-96.998
-116.919
-134.823
-147.69
-152.301
-145.943
-126.728
-92.645
-42.386
23.687
103.805
194.997
293.125
393.612
491.603
581.425
657.604
715.278
750.77
762.199
748.721
711.817
654.428
579.188
490.654
392.338
287.302
183.311
86.857
4.64
-56.788
-99.635
-127.12
-142.988
-152.693
-155.722
-152.034
-143.327
-130.155
-115.454
-101.395
-87.936
-75.508
-64.421
-54.556
-46.327
-39.79
-34.356
-29.858
-26.365
-23.562
-20.927
-17.985
-14.138
-9.127
-3.168
3.555
10.828
18.167
24.963
30.736
35.08
37.825
39.071
38.966
37.714
35.66
33.23
30.743
28.427
26.424
24.785
23.597
22.959
22.931
23.521
24.729
26.555
28.997
32.064
35.73
39.932
44.602
49.667
55.074
60.791
66.786
73.014
79.42
85.939
92.509
99.09
105.658
112.197
118.695
125.142
131.539
137.894
144.22
150.527
156.808
163.042
169.21
175.299
181.313
187.262
193.158
198.998
204.771
210.46
216.056
221.561
226.975
232.296
237.528
242.688
247.816
252.972
258.203
263.533
268.966
274.484
280.076
285.736
291.452
297.213
302.987
308.724
314.379
319.899
325.207
330.203
334.75
338.678
341.849
344.156
345.52
345.888
345.198
343.392
340.428
336.273
330.913
324.355
316.593
307.646
297.573
286.468
274.474
261.772
248.519
234.852
220.899
206.767
192.582
178.474
164.558
150.956
137.776
125.122
113.115
101.849
91.379
81.735
72.902
64.838
57.511
50.888
44.932
39.615
34.887
30.693
26.976
23.663
20.683
17.968
15.433
13.013
10.665
8.353
6.066
3.811
1.585
-0.605
-2.749
-4.844
-6.876
-8.827
-10.678
-12.393
-13.944
-15.311
-16.467
-17.399
-18.104
-18.581
-18.84
-18.903
-18.789
-18.52
-18.122
-17.614
-17.019
-16.364
-15.677
-14.99
-14.333
-13.726
-13.189
-12.739
-12.388
-12.146
-12.017
-12.001
-12.097
-12.303
-12.618
-13.042
-13.572
-14.203
-14.93
-15.745
-16.644
-17.619
-18.665
-19.778
-20.949
-22.175
-23.45
-24.771
-26.132
-27.529
-28.955
-30.405
-31.871
-33.349
-34.833
-36.318
-37.798
-39.268
-40.726
-42.167
-43.589
-44.99
-46.366
-47.716
-49.037
-50.33
-51.592
-52.824
-54.025
-55.195
-56.334
-57.442
-58.521
-59.571
-60.592
-61.584
-62.549
-63.487
-64.398
-65.285
-66.146
-66.983
-67.797
-68.587
-69.354
-70.097
-70.817
-71.512
-72.181
-72.825
-73.44
-74.026
-74.58
-75.1
-75.585
-76.032
-76.438
-76.802
-77.121
-77.392
-77.614
-77.783
-77.898
-77.954
-77.951
-77.886
-77.757
-77.562
-77.299
-76.966
-76.562
-76.085
-75.534
-74.908
-74.207
-73.429
-72.574
-71.643
-70.637
-69.557
-68.405
-67.184
-65.896
-64.547
-63.138
-61.675
-60.162
-58.604
-57.007
-55.377
-53.72
-52.044
-50.356
-48.665
-46.984
-45.323
-43.694
-42.107
-40.576
-39.112
-37.731
-36.447
-35.271
-34.215
-33.292
-32.514
-31.894
-31.445
-31.179
-31.102
-31.219
-31.538
-32.064
-32.804
-33.76
-34.93
-36.309
-37.894
-39.691
-41.707
-43.944
-46.403
-49.076
-51.953
-55.028
-58.29
-61.713
-65.271
-68.922
-72.624
-76.338
-80.027
-83.663
-87.22
-90.655
-93.918
-96.942
-99.657
-102.023
-104.025
-105.674
-106.97
-107.891
-108.477
-108.893
-109.417
-110.34
-111.838
-113.867
-116.378
-119.551
-123.46
-127.957
-132.538
-136.357
-138.856
-140.058
-140.121
-138.911
-136.365
-132.626
-128.524
-125.777
-125.715
-128.895
-135.445
-145.343
-158.489
-174.451
-191.647
-207.07
-217.606
-220.391
-212.96
-193.332
-159.479
-109.948
-44.728
34.491
124.797
222.383
322.98
421.93
513.773
593.207
655.299
695.981
713.052
705.285
673.497
621.138
551.043
466.081
368.839
259.627
144.042
32.398
-65.297
-137.662
-182.44
-206.827
-217.883
-223.959
-227.759
-225.855
-217.581
-203.357
-185.224
-167.172
-150.895
-136.803
-125.729
-117.892
-113.186
-111.346
-111.491
-112.874
-115.164
-117.896
-120.187
-121.133
-120.243
-117.452
-113.11
-107.697
-101.573
-95.228
-89.426
-84.82
-81.751
-80.324
-80.374
-81.624
-83.857
-86.766
-89.92
-93.011
-95.855
-98.34
-100.475
-102.247
-103.576
-104.416
-104.74
-104.516
-103.737
-102.398
-100.484
-98.017
-95.046
-91.628
-87.83
-83.697
-79.253
-74.52
-69.516
-64.269
-58.826
-53.236
-47.552
-41.821
-36.073
-30.33
-24.601
-18.888
-13.19
-7.501
-1.807
3.889
9.578
15.243
20.857
26.401
31.864
37.241
42.536
47.751
52.885
57.93
62.874
67.708
72.43
77.038
81.531
85.912
90.186
94.368
98.486
102.562
106.604
110.611
114.568
118.447
122.221
125.859
129.331
132.59
135.575
138.221
140.458
142.23
143.481
144.14
144.121
143.341
141.738
139.265
135.897
131.621
126.423
120.301
113.267
105.361
96.641
87.173
77.021
66.23
54.848
42.95
30.634
18.006
5.158
-7.823
-20.86
-33.867
-46.739
-59.388
-71.745
-83.769
-95.43
-106.696
-117.525
-127.85
-137.616
-146.795
-155.38
-163.374
-170.775
-177.59
-183.832
-189.545
-194.796
-199.64
-204.109
-208.217
-211.975
-215.405
-218.541
-221.435
-224.123
-226.629
-228.971
-231.161
-233.219
-235.153
-236.96
-238.61
-240.062
-241.287
-242.276
-243.03
-243.556
-243.855
-243.923
-243.755
-243.361
-242.752
-241.941
-240.938
-239.753
-238.4
-236.905
-235.304
-233.638
-231.939
-230.231
-228.533
-226.863
-225.236
-223.67
-222.175
-220.756
-219.417
-218.165
-217.008
-215.954
-215.007
-214.168
-213.436
-212.809
-212.285
-211.863
-211.543
-211.323
-211.201
-211.175
-211.247
-211.416
-211.681
-212.04
-212.489
-213.024
-213.64
-214.332
-215.096
-215.923
-216.81
-217.75
-218.736
-219.765
-220.829
-221.924
-223.044
-224.182
-225.335
-226.496
-227.661
-228.825
-229.982
-231.13
-232.263
-233.377
-234.47
-235.536
-236.573
-237.578
-238.547
-239.479
-240.37
-241.219
-242.023
-242.782
-243.494
-244.159
-244.776
-245.346
-245.868
-246.343
-246.772
-247.156
-247.496
-247.793
-248.048
-248.262
-248.438
-248.575
-248.677
-248.743
-248.776
-248.776
-248.746
-248.686
-248.597
-248.48
-248.337
-248.167
-247.972
-247.751
-247.506
-247.235
-246.939
-246.616
-246.266
-245.888
-245.48
-245.04
-244.566
-244.056
-243.506
-242.914
-242.276
-241.591
-240.853
-240.06
-239.208
-238.294
-237.312
-236.261
-235.135
-233.931
-232.646
-231.275
-229.815
-228.263
-226.616
-224.871
-223.024
-221.074
-219.019
-216.856
-214.583
-212.199
-209.704
-207.096
-204.377
-201.548
-198.609
-195.563
-192.413
-189.163
-185.817
-182.38
-178.856
-175.251
-171.571
-167.824
-164.018
-160.161
-156.263
-152.332
-148.382
-144.427
-140.479
-136.552
-132.661
-128.818
-125.04
-121.343
-117.742
-114.252
-110.888
-107.663
-104.592
-101.692
-98.978
-96.46
-94.149
-92.05
-90.171
-88.517
-87.094
-85.904
-84.948
-84.222
-83.727
-83.467
-83.444
-83.661
-84.116
-84.797
-85.69
-86.78
-88.044
-89.459
-90.994
-92.612
-94.274
-95.933
-97.55
-99.091
-100.526
-101.82
-102.926
-103.772
-104.285
-104.431
-104.204
-103.638
-102.755
-101.521
-99.971
-98.269
-96.694
-95.566
-95.067
-95.14
-95.72
-96.965
-98.939
-101.472
-104.003
-105.607
-105.638
-104.06
-101.026
-96.437
-90.283
-82.83
-75.044
-68.751
-65.48
-65.902
-70.121
-78.09
-89.491
-103.519
-118.31
-130.623
-136.99
-134.335
-120.19
-92.672
-50.131
8.467
82.68
170.51
267.936
369.082
469.571
565.905
655.385
737.949
808.735
859.32
883.032
871.75
826.356
756.83
670.739
578.084
483.318
384.006
284.973
190.912
108.228
46.168
3.478
-23.235
-37.562
-45.374
-45.854
-38.274
-24.496
-5.47
15.475
35.732
54.932
72.319
87.09
98.803
107.186
112.543
115.667
117.043
116.884
115.705
114.515
114.343
115.791
119.024
123.8
129.787
136.75
144.231
151.423
157.63
162.479
165.856
167.946
169.056
169.442
169.462
169.598
170.185
171.411
173.367
176.003
179.265
183.146
187.604
192.587
198.063
204.001
210.363
217.123
224.21
231.517
238.948
246.406
253.824
261.169
268.415
275.551
282.574
289.491
296.302
303.005
309.595
316.064
322.42
328.676
334.856
340.987
347.093
353.197
359.312
365.438
371.565
377.671
383.735
389.736
395.657
401.494
407.234
412.865
418.371
423.737
428.956
434.027
438.953
443.735
448.388
452.939
457.426
461.899
466.392
470.915
475.47
480.044
484.633
489.235
493.834
498.404
502.907
507.295
511.521
515.532
519.243
522.545
525.315
527.416
528.744
529.229
528.813
527.446
525.073
521.64
517.126
511.531
504.86
497.127
488.339
478.521
467.75
456.143
443.838
430.984
417.709
404.118
390.323
376.442
362.606
348.945
335.557
322.522
309.922
297.846
286.396
275.652
265.648
256.378
247.821
239.946
232.733
226.166
220.202
214.785
209.846
205.307
201.119
197.241
193.626
190.217
186.945
183.752
180.609
177.51
174.455
171.442
168.467
165.526
162.64
159.837
157.152
154.625
152.276
150.116
148.158
146.416
144.907
143.641
142.613
141.806
141.205
140.794
140.56
140.488
140.548
140.709
140.937
141.197
141.461
141.708
141.916
142.068
142.148
142.14
142.039
141.841
141.543
141.138
140.624
139.994
139.251
138.395
137.43
136.358
135.182
133.906
132.531
131.061
129.498
127.843
126.098
124.263
122.342
120.338
118.253
116.093
113.862
111.564
109.204
106.787
104.317
101.799
99.236
96.631
93.988
91.312
88.605
85.872
83.115
80.339
77.547
74.74
71.924
69.099
66.268
63.435
60.6
57.767
54.937
52.114
49.299
46.495
43.704
40.929
38.17
35.431
32.713
30.019
27.349
24.706
22.093
19.513
16.966
14.458
11.989
9.565
7.187
4.859
2.583
0.363
-1.799
-3.899
-5.936
-7.906
-9.806
-11.633
-13.386
-15.061
-16.655
-18.166
-19.593
-20.932
-22.183
-23.343
-24.411
-25.384
-26.263
-27.045
-27.728
-28.313
-28.799
-29.186
-29.473
-29.663
-29.757
-29.758
-29.668
-29.49
-29.228
-28.887
-28.471
-27.986
-27.437
-26.831
-26.176
-25.479
-24.748
-23.993
-23.223
-22.45
-21.687
-20.946
-20.241
-19.585
-18.994
-18.482
-18.065
-17.755
-17.565
-17.51
-17.602
-17.854
-18.282
-18.898
-19.714
-20.74
-21.985
-23.458
-25.164
-27.102
-29.273
-31.674
-34.306
-37.176
-40.289
-43.651
-47.263
-51.124
-55.225
-59.555
-64.093
-68.809
-73.669
-78.634
-83.67
-88.746
-93.83
-98.886
-103.871
-108.725
-113.384
-117.793
-121.893
-125.64
-129.014
-132.002
-134.621
-136.922
-138.944
-140.747
-142.411
-144.005
-145.63
-147.403
-149.418
-151.821
-154.81
-158.52
-163.011
-168.205
-173.777
-179.331
-184.495
-188.796
-191.725
-192.946
-192.316
-190.126
-187.285
-184.901
-184.005
-185.565
-190.29
-198.401
-209.611
-222.767
-235.516
-244.825
-247.452
-240.28
-220.577
-186.138
-135.465
-68.233
13.31
104.423
199.671
294.429
387.189
478.049
564.321
638.359
686.935
698.118
667.92
601.411
511.523
408.764
297.666
180.504
59.349
-56.356
-153.372
-223.22
-264.353
-285.114
-296.673
-305.454
-312.707
-314.666
-308.274
-294.237
-275.49
-255.909
-237.337
-219.861
-203.379
-188.005
-174.68
-164.063
-155.902
-149.87
-145.921
-144
-144.022
-145.301
-146.37
-146.272
-144.746
-141.77
-137.526
-132.203
-125.911
-119.154
-112.893
-107.759
-104.017
-101.719
-100.62
-100.482
-101.155
-102.37
-103.741
-105.02
-106.061
-106.777
-107.212
-107.395
-107.317
-106.992
-106.428
-105.599
-104.464
-103.006
-101.209
-99.083
-96.657
-93.94
-90.935
-87.65
-84.096
-80.289
-76.245
-71.968
-67.454
-62.715
-57.777
-52.673
-47.456
-42.155
-36.787
-31.366
-25.903
-20.413
-14.918
-9.442
-3.995
1.409
6.762
12.054
17.269
22.393
27.418
32.332
37.142
41.859
46.489
51.035
55.515
59.948
64.372
68.839
73.377
77.997
82.703
87.477
92.314
97.208
102.148
107.124
112.109
117.06
121.93
126.666
131.185
135.384
139.136
142.28
144.691
146.273
146.947
146.652
145.33
142.919
139.369
134.634
128.686
121.503
113.087
103.461
92.688
80.873
68.152
54.7
40.674
26.214
11.454
-3.481
-18.46
-33.348
-48.003
-62.284
-76.049
-89.159
-101.496
-112.972
-123.529
-133.147
-141.834
-149.626
-156.564
-162.689
-168.046
-172.674
-176.629
-179.974
-182.79
-185.177
-187.23
-189.051
-190.725
-192.316
-193.874
-195.433
-197.007
-198.598
-200.2
-201.801
-203.389
-204.963
-206.506
-207.999
-209.41
-210.69
-211.799
-212.702
-213.373
-213.8
-213.975
-213.896
-213.573
-213.025
-212.276
-211.349
-210.268
-209.049
-207.714
-206.288
-204.799
-203.284
-201.77
-200.281
-198.833
-197.442
-196.118
-194.869
-193.698
-192.601
-191.576
-190.618
-189.724
-188.896
-188.13
-187.422
-186.765
-186.153
-185.581
-185.046
-184.543
-184.067
-183.616
-183.185
-182.772
-182.377
-181.999
-181.633
-181.278
-180.929
-180.585
-180.242
-179.897
-179.549
-179.194
-178.832
-178.461
-178.081
-177.692
-177.294
-176.886
-176.47
-176.046
-175.616
-175.18
-174.741
-174.299
-173.855
-173.412
-172.97
-172.53
-172.091
-171.656
-171.222
-170.79
-170.359
-169.93
-169.499
-169.067
-168.632
-168.192
-167.745
-167.289
-166.821
-166.339
-165.839
-165.318
-164.772
-164.197
-163.591
-162.947
-162.263
-161.533
-160.754
-159.919
-159.026
-158.069
-157.043
-155.945
-154.771
-153.518
-152.182
-150.762
-149.256
-147.663
-145.982
-144.214
-142.36
-140.421
-138.4
-136.299
-134.124
-131.878
-129.567
-127.197
-124.776
-122.31
-119.812
-117.291
-114.759
-112.229
-109.714
-107.228
-104.785
-102.399
-100.084
-97.852
-95.714
-93.685
-91.779
-90.009
-88.39
-86.933
-85.651
-84.553
-83.65
-82.949
-82.451
-82.156
-82.066
-82.182
-82.517
-83.079
-83.875
-84.91
-86.184
-87.69
-89.418
-91.351
-93.456
-95.698
-98.04
-100.445
-102.89
-105.344
-107.772
-110.132
-112.363
-114.403
-116.204
-117.711
-118.888
-119.722
-120.205
-120.367
-120.271
-119.966
-119.523
-119.03
-118.558
-118.217
-118.125
-118.373
-119.117
-120.558
-122.826
-125.972
-129.882
-134.195
-138.51
-142.457
-145.564
-147.33
-147.382
-145.562
-142.264
-138.457
-135.275
-133.716
-134.541
-138.344
-145.381
-155.326
-166.805
-177.285
-183.504
-182.246
-170.894
-146.837
-107.837
-52.758
18.345
102.739
194.932
290.554
386.119
478.526
567.162
646.324
705.907
737.964
733.705
693.068
626.549
542.648
450.228
353.995
250.137
141.311
36.079
-56.609
-124.137
-163.092
-180.799
-184.622
-183.591
-181.801
-176.743
-167.914
-155.487
-140.778
-126.973
-115.056
-104.555
-95.311
-86.797
-78.814
-71.66
-65.142
-59.228
-54.236
-50.405
-47.692
-45.642
-43.684
-41.277
-38.2
-34.425
-29.951
-24.861
-19.426
-14.202
-9.658
-6.134
-3.788
-2.515
-2.167
-2.573
-3.458
-4.492
-5.442
-6.139
-6.49
-6.506
-6.156
-5.407
-4.256
-2.685
-0.684
1.746
4.613
7.91
11.603
15.651
20.009
24.637
29.519
34.641
39.988
45.549
51.3
57.213
63.263
69.403
75.595
81.81
88.026
94.232
100.428
106.605
112.757
118.875
124.947
130.962
136.911
142.781
148.566
154.253
159.842
165.338
170.749
176.086
181.361
186.579
191.756
196.918
202.091
207.31
212.592
217.941
223.356
228.827
234.344
239.897
245.456
250.982
256.433
261.753
266.883
271.762
276.303
280.402
283.965
286.885
289.084
290.508
291.101
290.82
289.631
287.507
284.445
280.458
275.548
269.727
263.027
255.486
247.174
238.189
228.599
218.486
207.924
196.965
185.689
174.172
162.481
150.679
138.829
126.99
115.247
103.702
92.422
81.47
70.888
60.697
50.96
41.729
33.045
24.95
17.458
10.572
4.306
-1.33
-6.352
-10.786
-14.689
-18.143
-21.199
-23.902
-26.291
-28.399
-30.289
-32.02
-33.633
-35.16
-36.623
-38.035
-39.419
-40.797
-42.163
-43.502
-44.784
-45.961
-47.011
-47.922
-48.68
-49.277
-49.698
-49.927
-49.969
-49.834
-49.535
-49.083
-48.488
-47.756
-46.912
-45.982
-44.997
-43.991
-42.989
-42.008
-41.066
-40.176
-39.351
-38.601
-37.926
-37.323
-36.791
-36.33
-35.94
-35.62
-35.368
-35.177
-35.042
-34.956
-34.914
-34.911
-34.943
-35.004
-35.092
-35.204
-35.337
-35.49
-35.661
-35.848
-36.047
-36.254
-36.467
-36.683
-36.899
-37.111
-37.317
-37.515
-37.705
-37.884
-38.052
-38.21
-38.356
-38.492
-38.618
-38.736
-38.846
-38.952
-39.054
-39.154
-39.256
-39.36
-39.469
-39.584
-39.709
-39.843
-39.988
-40.146
-40.317
-40.501
-40.698
-40.908
-41.128
-41.356
-41.592
-41.831
-42.073
-42.315
-42.554
-42.788
-43.015
-43.234
-43.441
-43.633
-43.805
-43.953
-44.07
-44.15
-44.187
-44.174
-44.102
-43.964
-43.755
-43.469
-43.101
-42.644
-42.086
-41.422
-40.65
-39.77
-38.785
-37.698
-36.516
-35.25
-33.918
-32.538
-31.128
-29.703
-28.268
-26.828
-25.394
-23.975
-22.58
-21.213
-19.864
-18.522
-17.179
-15.824
-14.447
-13.034
-11.548
-9.963
-8.266
-6.445
-4.512
-2.482
-0.369
1.807
4.014
6.213
8.342
10.333
12.131
13.682
14.931
15.822
16.274
16.221
15.622
14.446
12.685
10.355
7.467
4.053
0.18
-4.082
-8.644
-13.401
-18.289
-23.232
-28.136
-32.906
-37.416
-41.545
-45.234
-48.42
-51.024
-53.067
-54.61
-55.806
-56.962
-58.356
-60.171
-62.566
-65.61
-69.175
-73.035
-76.768
-79.692
-81.161
-80.596
-77.649
-72.3
-64.888
-56.028
-46.585
-37.699
-30.663
-26.903
-27.437
-32.78
-42.848
-56.861
-73.799
-92.25
-110.116
-124.686
-133.261
-133.152
-122.246
-99.398
-63.232
-12.775
51.564
128.51
214.858
305.148
395.736
484.118
568.151
648.192
719.15
771.525
797.208
787.859
744.701
677.686
595.303
504.506
406.438
298.843
186.005
79.343
-7.805
-65.86
-95.077
-105.682
-109.056
-112.234
-116.382
-117.76
-113.726
-104.618
-92.681
-80.861
-70.058
-59.756
-49.528
-38.917
-28.355
-18.632
-9.779
-2.066
3.901
7.832
9.545
9.32
8.259
7.369
7.066
7.675
9.373
12.107
15.868
20.315
24.635
28.194
30.698
32.036
32.341
31.824
30.62
28.956
27.184
25.558
24.232
23.289
22.712
22.485
22.633
23.173
24.12
25.492
27.295
29.52
32.153
35.17
38.543
42.25
46.274
50.597
55.205
60.085
65.223
70.598
76.184
81.94
87.808
93.748
99.735
105.753
111.798
117.864
123.941
130.022
136.101
142.165
148.189
154.152
160.029
165.804
171.474
177.032
182.477
187.804
193.001
198.06
202.978
207.754
212.389
216.896
221.287
225.587
229.834
234.047
238.234
242.403
246.544
250.65
254.724
258.752
262.714
266.59
270.339
273.909
277.242
280.246
282.817
284.851
286.231
286.866
286.69
285.632
283.637
280.657
276.635
271.529
265.317
257.97
249.488
239.909
229.284
217.713
205.328
192.25
178.618
164.569
150.215
135.686
121.11
106.606
92.312
78.376
64.926
52.104
40.025
28.759
18.361
8.847
0.202
-7.584
-14.538
-20.703
-26.113
-30.81
-34.855
-38.303
-41.234
-43.757
-45.971
-47.978
-49.869
-51.698
-53.514
-55.349
-57.215
-59.122
-61.073
-63.054
-65.059
-67.086
-69.117
-71.135
-73.109
-74.984
-76.715
-78.265
-79.604
-80.719
-81.603
-82.252
-82.675
-82.888
-82.912
-82.769
-82.48
-82.06
-81.528
-80.908
-80.228
-79.524
-78.824
-78.151
-77.525
-76.958
-76.462
-76.046
-75.715
-75.465
-75.293
-75.198
-75.178
-75.234
-75.365
-75.568
-75.838
-76.171
-76.561
-77.006
-77.503
-78.048
-78.637
-79.268
-79.937
-80.644
-81.386
-82.16
-82.962
-83.788
-84.632
-85.492
-86.364
-87.242
-88.123
-89.004
-89.882
-90.755
-91.62
-92.475
-93.318
-94.147
-94.962
-95.76
-96.541
-97.305
-98.051
-98.779
-99.489
-100.181
-100.855
-101.511
-102.15
-102.77
-103.374
-103.961
-104.533
-105.089
-105.632
-106.162
-106.681
-107.189
-107.688
-108.178
-108.659
-109.133
-109.599
-110.056
-110.505
-110.945
-111.375
-111.793
-112.2
-112.594
-112.972
-113.334
-113.677
-113.999
-114.297
-114.569
-114.812
-115.022
-115.196
-115.333
-115.429
-115.482
-115.489
-115.447
-115.352
-115.203
-114.995
-114.726
-114.391
-113.986
-113.508
-112.955
-112.326
-111.619
-110.832
-109.966
-109.02
-107.997
-106.899
-105.726
-104.478
-103.156
-101.761
-100.301
-98.786
-97.222
-95.617
-93.983
-92.332
-90.679
-89.041
-87.423
-85.834
-84.281
-82.774
-81.328
-79.96
-78.685
-77.52
-76.473
-75.552
-74.772
-74.144
-73.673
-73.363
-73.211
-73.212
-73.387
-73.752
-74.319
-75.103
-76.107
-77.338
-78.805
-80.512
-82.466
-84.667
-87.103
-89.759
-92.624
-95.681
-98.916
-102.313
-105.821
-109.384
-112.958
-116.501
-119.974
-123.34
-126.539
-129.49
-132.14
-134.466
-136.467
-138.185
-139.635
-140.762
-141.628
-142.414
-143.312
-144.576
-146.314
-148.386
-150.839
-153.949
-157.71
-161.934
-166.25
-169.876
-172.453
-174.224
-175.063
-174.581
-172.751
-169.67
-166.003
-163.32
-162.514
-163.684
-167.182
-173.22
-181.703
-192.359
-203.73
-213.003
-217.674
-215.504
-204.134
-181.807
-146.782
-97.474
-33.96
41.98
128.027
219.833
312.522
403.042
486.537
559.959
621.462
664.551
685.282
679.984
644.858
585.051
506.871
416.791
323.553
230.23
138.974
53.597
-23.571
-88.958
-139.82
-176.108
-199.004
-210.628
-213.09
-208.67
-199.675
-188.049
-175.8
-164.26
-153.736
-144.393
-136.526
-129.934
-124.495
-120.353
-117.113
-114.489
-112.569
-111.095
-109.579
-107.876
-105.731
-102.678
-98.707
-93.895
-88.257
-82.229
-76.421
-71.149
-66.696
-63.362
-61.153
-60.017
-59.88
-60.417
-61.236
-62.097
-62.83
-63.338
-63.635
-63.704
-63.514
-63.084
-62.42
-61.507
-60.316
-58.777
-56.828
-54.447
-51.64
-48.44
-44.892
-41.023
-36.851
-32.384
-27.626
-22.584
-17.27
-11.687
-5.86
0.186
6.416
12.77
19.198
25.671
32.162
38.661
45.163
51.648
58.093
64.484
70.803
77.04
83.188
89.231
95.154
100.946
106.6
112.13
117.553
122.881
128.127
133.309
138.449
143.594
148.798
154.093
159.497
165.01
170.617
176.312
182.092
187.948
193.856
199.774
205.645
211.414
217.028
222.404
227.439
231.993
235.908
239.057
241.345
242.702
243.077
242.415
240.654
237.754
233.702
228.504
222.181
214.751
206.227
196.665
186.164
174.868
162.947
150.545
137.785
124.775
111.622
98.445
85.375
72.528
59.991
47.839
36.15
25.006
14.504
4.707
-4.369
-12.741
-20.447
-27.515
-33.959
-39.797
-45.066
-49.815
-54.108
-58.009
-61.555
-64.784
-67.74
-70.472
-73.046
-75.51
-77.884
-80.169
-82.36
-84.455
-86.461
-88.378
-90.189
-91.867
-93.383
-94.702
-95.807
-96.69
-97.337
-97.738
-97.876
-97.744
-97.35
-96.712
-95.847
-94.772
-93.503
-92.057
-90.465
-88.758
-86.97
-85.137
-83.287
-81.442
-79.626
-77.857
-76.152
-74.527
-72.989
-71.542
-70.19
-68.939
-67.793
-66.756
-65.828
-65.007
-64.289
-63.672
-63.151
-62.724
-62.387
-62.135
-61.966
-61.875
-61.86
-61.917
-62.043
-62.231
-62.476
-62.771
-63.109
-63.483
-63.886
-64.31
-64.748
-65.194
-65.642
-66.086
-66.522
-66.944
-67.349
-67.731
-68.087
-68.413
-68.708
-68.968
-69.191
-69.377
-69.525
-69.633
-69.703
-69.734
-69.728
-69.685
-69.605
-69.491
-69.344
-69.166
-68.958
-68.722
-68.462
-68.179
-67.877
-67.557
-67.223
-66.878
-66.525
-66.164
-65.8
-65.433
-65.065
-64.699
-64.335
-63.975
-63.62
-63.271
-62.927
-62.59
-62.26
-61.936
-61.616
-61.3
-60.984
-60.666
-60.344
-60.014
-59.675
-59.322
-58.953
-58.567
-58.161
-57.734
-57.284
-56.806
-56.299
-55.758
-55.178
-54.556
-53.887
-53.164
-52.383
-51.539
-50.63
-49.652
-48.601
-47.471
-46.255
-44.949
-43.553
-42.07
-40.501
-38.855
-37.141
-35.373
-33.573
-31.759
-29.949
-28.159
-26.401
-24.686
-23.022
-21.419
-19.889
-18.436
-17.054
-15.735
-14.464
-13.222
-11.991
-10.742
-9.439
-8.053
-6.561
-4.95
-3.215
-1.362
0.595
2.635
4.733
6.853
8.944
10.944
12.78
14.375
15.659
16.555
16.978
16.862
16.153
14.816
12.84
10.233
7.019
3.245
-1.028
-5.729
-10.768
-16.052
-21.485
-26.946
-32.313
-37.453
-42.22
-46.517
-50.307
-53.539
-56.162
-58.2
-59.726
-60.957
-62.265
-63.867
-65.82
-68.144
-70.856
-73.982
-77.508
-81.083
-83.942
-85.497
-85.524
-84.073
-81.387
-77.58
-72.726
-67.333
-62.605
-59.839
-59.887
-63.118
-69.386
-78.452
-90.088
-103.567
-117.14
-128.342
-134.677
-133.635
-123.155
-101.678
-67.446
-19.066
43.674
119.843
206.459
298.38
390.875
480.51
566.305
648.776
724.913
787.466
824.634
825.498
787.979
716.95
624.088
521.239
412.788
302.929
196.169
97.795
18.108
-38.455
-75.462
-97.544
-112.564
-124.575
-130.826
-130.633
-124.145
-112.593
-100.092
-88.583
-77.901
-67.878
-58.129
-48.551
-39.527
-31.267
-23.49
-16.308
-10.128
-5.204
-1.516
1.395
4.095
7.021
10.272
13.846
17.761
21.956
26.197
29.968
32.823
34.463
34.772
33.879
31.97
29.264
26.084
22.824
19.79
17.225
15.315
14.133
13.724
14.115
15.266
17.127
19.662
22.835
26.61
30.945
35.77
41.007
46.588
52.447
58.524
64.753
71.054
77.363
83.639
89.856
96.009
102.094
108.104
114.044
119.927
125.769
131.587
137.391
143.179
148.953
154.712
160.451
166.175
171.886
177.579
183.25
188.89
194.48
200.005
205.442
210.774
215.992
221.096
226.084
230.973
235.788
240.556
245.318
250.099
254.9
259.719
264.538
269.336
274.104
278.823
283.463
287.986
292.345
296.482
300.341
303.845
306.888
309.361
311.141
312.13
312.27
311.513
309.822
307.175
303.545
298.915
293.295
286.694
279.118
270.596
261.151
250.835
239.752
228.009
215.722
203.004
189.932
176.583
163.046
149.397
135.711
122.075
108.559
95.246
82.252
69.668
57.585
46.085
35.192
24.929
15.315
6.355
-1.93
-9.531
-16.456
-22.713
-28.306
-33.261
-37.608
-41.396
-44.717
-47.649
-50.261
-52.628
-54.79
-56.784
-58.65
-60.413
-62.091
-63.706
-65.264
-66.771
-68.244
-69.684
-71.084
-72.425
-73.665
-74.77
-75.72
-76.49
-77.071
-77.462
-77.657
-77.666
-77.508
-77.197
-76.755
-76.2
-75.544
-74.805
-74.008
-73.177
-72.344
-71.538
-70.778
-70.083
-69.467
-68.94
-68.512
-68.184
-67.951
-67.812
-67.763
-67.801
-67.924
-68.131
-68.414
-68.77
-69.19
-69.67
-70.204
-70.788
-71.415
-72.082
-72.784
-73.517
-74.281
-75.071
-75.884
-76.716
-77.563
-78.42
-79.284
-80.149
-81.014
-81.872
-82.722
-83.56
-84.385
-85.194
-85.987
-86.761
-87.517
-88.254
-88.973
-89.672
-90.354
-91.019
-91.668
-92.302
-92.923
-93.531
-94.127
-94.714
-95.291
-95.859
-96.419
-96.971
-97.516
-98.052
-98.58
-99.1
-99.61
-100.11
-100.598
-101.074
-101.536
-101.983
-102.412
-102.822
-103.21
-103.573
-103.908
-104.211
-104.48
-104.709
-104.896
-105.036
-105.124
-105.158
-105.131
-105.041
-104.882
-104.65
-104.342
-103.952
-103.479
-102.918
-102.269
-101.528
-100.694
-99.768
-98.749
-97.639
-96.438
-95.149
-93.775
-92.318
-90.783
-89.175
-87.5
-85.764
-83.975
-82.14
-80.273
-78.383
-76.484
-74.588
-72.71
-70.864
-69.065
-67.328
-65.668
-64.097
-62.628
-61.277
-60.056
-58.982
-58.069
-57.328
-56.772
-56.407
-56.243
-56.286
-56.537
-56.998
-57.668
-58.548
-59.645
-60.968
-62.521
-64.308
-66.328
-68.569
-71.019
-73.659
-76.455
-79.376
-82.386
-85.443
-88.518
-91.573
-94.563
-97.455
-100.192
-102.717
-104.99
-106.944
-108.525
-109.73
-110.556
-111.032
-111.244
-111.198
-110.918
-110.574
-110.299
-110.266
-110.691
-111.563
-112.903
-114.986
-117.973
-121.745
-126.082
-130.37
-133.909
-136.594
-138.239
-138.319
-136.566
-133.053
-128.319
-123.809
-121.113
-120.887
-123.594
-129.776
-139.424
-151.975
-165.831
-177.854
-184.32
-182.239
-169.012
-141.905
-99.057
-39.572
36.245
124.741
220.852
320.981
420.13
514.628
601.515
672.248
720.177
739.942
726.429
684.503
621.199
541.924
453.374
356.24
249.095
137.176
28.786
-66.11
-136.355
-180.445
-204.944
-216.772
-224.305
-230.301
-231.58
-226.881
-215.636
-199.161
-181.073
-162.745
-144.335
-126.276
-108.856
-93.227
-80.507
-70.742
-63.759
-59.631
-58.289
-59.526
-62.545
-65.703
-67.842
-68.594
-67.861
-65.77
-62.507
-58.185
-53.336
-48.998
-45.839
-44.115
-43.863
-44.804
-46.663
-49.274
-52.311
-55.297
-57.9
-59.88
-61.085
-61.541
-61.267
-60.257
-58.558
-56.22
-53.284
-49.806
-45.839
-41.416
-36.593
-31.421
-25.939
-20.203
-14.269
-8.2
-2.072
4.066
10.189
16.28
22.334
28.345
34.311
40.241
46.15
52.051
57.951
63.849
69.731
75.586
81.407
87.195
92.956
98.695
104.409
110.087
115.711
121.259
126.712
132.056
137.282
142.383
147.368
152.254
157.08
161.903
166.772
171.715
176.742
181.847
187.02
192.261
197.565
202.926
208.331
213.75
219.15
224.489
229.703
234.697
239.342
243.475
246.939
249.613
251.41
252.262
252.102
250.867
248.503
244.967
240.223
234.242
226.988
218.445
208.636
197.636
185.577
172.628
158.963
144.731
130.058
115.072
99.904
84.686
69.54
54.589
39.96
25.807
12.311
-0.372
-12.134
-22.911
-32.699
-41.514
-49.389
-56.351
-62.431
-67.669
-72.117
-75.826
-78.838
-81.214
-83.03
-84.4
-85.482
-86.402
-87.258
-88.117
-89.016
-89.978
-91.026
-92.166
-93.39
-94.692
-96.056
-97.476
-98.957
-100.484
-102.031
-103.551
-104.968
-106.23
-107.304
-108.167
-108.812
-109.236
-109.438
-109.431
-109.245
-108.903
-108.426
-107.833
-107.132
-106.339
-105.48
-104.581
-103.678
-102.797
-101.955
-101.167
-100.443
-99.791
-99.215
-98.714
-98.277
-97.897
-97.572
-97.297
-97.073
-96.897
-96.762
-96.665
-96.601
-96.565
-96.555
-96.567
-96.598
-96.645
-96.705
-96.779
-96.866
-96.966
-97.075
-97.194
-97.318
-97.448
-97.579
-97.712
-97.843
-97.971
-98.095
-98.215
-98.329
-98.438
-98.542
-98.639
-98.732
-98.819
-98.902
-98.98
-99.054
-99.125
-99.191
-99.254
-99.311
-99.364
-99.411
-99.451
-99.484
-99.508
-99.523
-99.528
-99.52
-99.499
-99.463
-99.412
-99.342
-99.252
-99.141
-99.006
-98.845
-98.654
-98.433
-98.177
-97.885
-97.552
-97.176
-96.754
-96.283
-95.76
-95.181
-94.545
-93.847
-93.086
-92.26
-91.366
-90.405
-89.374
-88.273
-87.102
-85.863
-84.556
-83.182
-81.742
-80.239
-78.676
-77.055
-75.382
-73.659
-71.893
-70.091
-68.261
-66.414
-64.559
-62.709
-60.872
-59.063
-57.292
-55.574
-53.923
-52.35
-50.868
-49.49
-48.229
-47.1
-46.119
-45.294
-44.637
-44.152
-43.847
-43.731
-43.807
-44.08
-44.55
-45.217
-46.087
-47.167
-48.46
-49.97
-51.696
-53.626
-55.748
-58.046
-60.497
-63.077
-65.754
-68.494
-71.262
-74.019
-76.728
-79.362
-81.885
-84.265
-86.461
-88.411
-90.061
-91.391
-92.4
-93.137
-93.642
-93.894
-93.944
-93.963
-94.207
-94.985
-96.464
-98.568
-101.249
-104.664
-108.856
-113.645
-118.443
-122.299
-124.582
-125.266
-124.48
-122.115
-118.1
-112.639
-106.748
-102.276
-100.77
-102.87
-108.496
-117.511
-129.693
-144.383
-159.752
-172.566
-179.201
-176.661
-163.093
-136.726
-95.756
-39.28
32.506
116.708
207.634
301.088
394.339
485.291
573.948
654.907
718.058
754.718
755.692
720.315
657.189
574.723
483.176
389.046
292.71
196.538
103.32
16.503
-58.309
-117.852
-161.376
-189.544
-204.561
-208.878
-204.596
-193.797
-178.728
-161.621
-144.178
-127.144
-110.789
-95.235
-80.85
-68.493
-58.537
-50.684
-44.638
-40.341
-37.774
-36.918
-37.211
-37.366
-36.561
-34.609
-31.533
-27.547
-22.846
-17.521
-12.023
-7.22
-3.668
-1.572
-0.927
-1.457
-2.897
-5.065
-7.663
-10.283
-12.63
-14.501
-15.753
-16.358
-16.301
-15.554
-14.134
-12.082
-9.425
-6.192
-2.431
1.82
6.501
11.545
16.905
22.546
28.421
34.485
40.672
46.913
53.168
59.416
65.641
71.839
78.001
84.12
90.207
96.277
102.341
108.405
114.458
120.481
126.463
132.396
138.284
144.141
149.968
155.753
161.485
167.139
172.704
178.178
183.556
188.83
194.004
199.093
204.131
209.179
214.275
219.441
224.68
229.97
235.297
240.656
246.035
251.419
256.78
262.065
267.23
272.235
277.01
281.468
285.483
288.889
291.555
293.388
294.317
294.305
293.306
291.267
288.154
283.951
278.652
272.266
264.785
256.194
246.526
235.856
224.309
212.06
199.25
185.989
172.376
158.498
144.458
130.37
116.328
102.413
88.718
75.349
62.446
50.161
38.591
27.789
17.767
8.497
-0.028
-7.802
-14.829
-21.121
-26.704
-31.617
-35.879
-39.512
-42.566
-45.119
-47.292
-49.209
-50.955
-52.588
-54.141
-55.634
-57.092
-58.543
-59.994
-61.443
-62.888
-64.325
-65.766
-67.217
-68.663
-70.068
-71.375
-72.531
-73.506
-74.285
-74.859
-75.228
-75.39
-75.354
-75.14
-74.775
-74.28
-73.671
-72.959
-72.155
-71.282
-70.368
-69.447
-68.545
-67.682
-66.873
-66.129
-65.461
-64.875
-64.373
-63.948
-63.594
-63.308
-63.09
-62.939
-62.854
-62.832
-62.867
-62.956
-63.094
-63.28
-63.509
-63.777
-64.082
-64.421
-64.792
-65.193
-65.624
-66.082
-66.562
-67.062
-67.578
-68.107
-68.645
-69.19
-69.737
-70.284
-70.829
-71.369
-71.903
-72.429
-72.945
-73.449
-73.941
-74.419
-74.882
-75.329
-75.758
-76.168
-76.559
-76.927
-77.273
-77.594
-77.888
-78.154
-78.391
-78.597
-78.77
-78.91
-79.014
-79.083
-79.114
-79.108
-79.062
-78.976
-78.849
-78.68
-78.468
-78.211
-77.908
-77.558
-77.159
-76.71
-76.21
-75.657
-75.049
-74.387
-73.667
-72.89
-72.055
-71.161
-70.207
-69.195
-68.126
-66.999
-65.818
-64.583
-63.299
-61.967
-60.592
-59.176
-57.723
-56.238
-54.726
-53.191
-51.638
-50.075
-48.509
-46.948
-45.402
-43.882
-42.398
-40.961
-39.586
-38.283
-37.064
-35.94
-34.92
-34.014
-33.234
-32.589
-32.093
-31.753
-31.579
-31.579
-31.759
-32.125
-32.679
-33.418
-34.339
-35.439
-36.721
-38.193
-39.866
-41.744
-43.832
-46.13
-48.631
-51.33
-54.207
-57.232
-60.37
-63.585
-66.838
-70.103
-73.346
-76.527
-79.597
-82.489
-85.136
-87.48
-89.47
-91.067
-92.253
-93.019
-93.384
-93.393
-93.11
-92.622
-92.03
-91.441
-90.977
-90.755
-90.925
-91.706
-93.264
-95.678
-98.893
-102.642
-106.566
-110.332
-113.522
-115.619
-116.269
-115.322
-113.028
-110.253
-108.071
-107.498
-109.504
-114.828
-123.731
-135.928
-150.207
-164.168
-174.754
-178.551
-172.215
-153.024
-118.669
-67.552
0.283
83.305
177.588
276.609
375.241
469.398
555.968
634.778
700.736
744.741
759.398
736.647
677.501
592.754
492.782
389.432
290.016
194.83
105.677
24.635
-45.948
-102.051
-142.13
-167.273
-179.555
-182.011
-177.543
-168.505
-156.961
-144.584
-132.598
-121.398
-110.804
-100.455
-90.113
-79.869
-69.964
-60.692
-52.245
-44.949
-39.205
-35.308
-33.161
-32.174
-31.724
-31.212
-30.285
-28.812
-26.697
-23.945
-20.831
-17.902
-15.616
-14.327
-14.162
-14.998
-16.669
-18.951
-21.533
-24.035
-26.136
-27.617
-28.352
-28.318
-27.521
-25.979
-23.731
-20.842
-17.367
-13.344
-8.822
-3.845
1.533
7.233
13.185
19.324
25.576
31.886
38.214
44.521
50.792
57.025
63.216
69.369
75.493
81.585
87.65
93.697
99.724
105.736
111.731
117.702
123.654
129.589
135.501
141.392
147.251
153.059
158.799
164.45
169.995
175.43
180.754
185.966
191.082
196.124
201.124
206.127
211.159
216.227
221.329
226.446
231.566
236.684
241.779
246.821
251.773
256.581
261.191
265.552
269.584
273.183
276.233
278.599
280.173
280.884
280.67
279.488
277.297
274.042
269.705
264.295
257.827
250.327
241.827
232.341
221.934
210.71
198.787
186.314
173.413
160.181
146.724
133.146
119.56
106.094
92.845
79.876
67.255
55.046
43.322
32.175
21.654
11.767
2.511
-6.136
-14.188
-21.644
-28.527
-34.878
-40.751
-46.216
-51.322
-56.089
-60.546
-64.725
-68.668
-72.436
-76.066
-79.562
-82.934
-86.18
-89.306
-92.326
-95.23
-97.992
-100.58
-102.95
-105.078
-106.96
-108.589
-109.957
-111.058
-111.877
-112.414
-112.687
-112.708
-112.492
-112.052
-111.397
-110.551
-109.546
-108.419
-107.207
-105.942
-104.644
-103.336
-102.037
-100.765
-99.537
-98.362
-97.245
-96.192
-95.21
-94.305
-93.486
-92.755
-92.112
-91.555
-91.082
-90.691
-90.38
-90.148
-89.991
-89.908
-89.895
-89.953
-90.08
-90.273
-90.529
-90.842
-91.209
-91.622
-92.077
-92.567
-93.086
-93.628
-94.187
-94.756
-95.332
-95.908
-96.48
-97.043
-97.592
-98.123
-98.631
-99.111
-99.562
-99.978
-100.356
-100.694
-100.988
-101.236
-101.436
-101.586
-101.683
-101.727
-101.715
-101.647
-101.52
-101.335
-101.09
-100.784
-100.416
-99.986
-99.494
-98.939
-98.322
-97.642
-96.898
-96.09
-95.217
-94.279
-93.275
-92.205
-91.067
-89.862
-88.589
-87.249
-85.842
-84.369
-82.832
-81.233
-79.573
-77.853
-76.077
-74.246
-72.365
-70.436
-68.465
-66.456
-64.415
-62.35
-60.27
-58.184
-56.103
-54.034
-51.99
-49.982
-48.025
-46.133
-44.317
-42.59
-40.963
-39.451
-38.068
-36.828
-35.74
-34.809
-34.045
-33.454
-33.046
-32.831
-32.809
-32.978
-33.333
-33.874
-34.606
-35.539
-36.673
-38.008
-39.539
-41.259
-43.166
-45.258
-47.509
-49.896
-52.377
-54.903
-57.45
-59.991
-62.509
-64.999
-67.413
-69.687
-71.76
-73.56
-75.05
-76.243
-77.11
-77.596
-77.739
-77.63
-77.507
-77.765
-78.611
-80.062
-82.089
-84.656
-87.76
-91.366
-95.053
-97.95
-99.387
-99.11
-97.224
-94.058
-89.745
-84.38
-78.565
-73.698
-71.323
-72.44
-77.398
-85.94
-97.776
-112.648
-129.68
-146.782
-161.017
-169.532
-169.771
-159.751
-137.769
-101.965
-51.178
14.302
92.714
181.248
276.321
373.986
469.817
558.516
634.798
693.764
731.671
746.45
736.882
703.988
650.192
577.658
490.714
392.712
286.716
180.682
81.261
-4.358
-68.924
-114.321
-143.526
-160.048
-169.401
-170.882
-164.184
-151.381
-133.573
-114.137
-95.741
-78.772
-63.851
-51.67
-42.549
-36.642
-33.595
-32.537
-32.891
-34.41
-36.607
-38.545
-39.294
-38.318
-35.473
-31.032
-25.345
-18.656
-11.433
-4.457
1.603
6.352
9.629
11.55
12.333
12.147
11.285
10.171
9.099
8.236
7.656
7.32
7.204
7.341
7.741
8.394
9.314
10.533
12.108
14.102
16.533
19.379
22.6
26.15
30.013
34.183
38.659
43.437
48.509
53.861
59.483
65.361
71.467
77.765
84.199
90.724
97.311
103.943
110.613
117.315
124.025
130.718
137.374
143.976
150.511
156.97
163.333
169.581
175.698
181.676
187.523
193.254
198.875
204.392
209.815
215.162
220.473
225.792
231.145
236.536
241.957
247.387
252.813
258.23
263.622
268.965
274.218
279.325
284.24
288.914
293.272
297.216
300.614
303.323
305.237
306.282
306.406
305.575
303.745
300.873
296.931
291.913
285.819
278.651
270.408
261.091
250.746
239.467
227.388
214.659
201.398
187.698
173.647
159.336
144.865
130.335
115.839
101.454
87.28
73.437
60.05
47.245
35.1
23.643
12.874
2.784
-6.625
-15.343
-23.374
-30.74
-37.466
-43.578
-49.105
-54.079
-58.567
-62.668
-66.484
-70.113
-73.623
-77.053
-80.429
-83.776
-87.117
-90.468
-93.835
-97.21
-100.59
-103.979
-107.374
-110.767
-114.125
-117.395
-120.529
-123.491
-126.255
-128.811
-131.153
-133.275
-135.181
-136.886
-138.406
-139.763
-140.971
-142.04
-142.983
-143.819
-144.572
-145.274
-145.949
-146.617
-147.292
-147.984
-148.704
-149.459
-150.248
-151.068
-151.913
-152.78
-153.668
-154.575
-155.502
-156.444
-157.397
-158.357
-159.322
-160.289
-161.256
-162.222
-163.184
-164.142
-165.095
-166.045
-166.99
-167.932
-168.867
-169.794
-170.713
-171.62
-172.514
-173.392
-174.252
-175.091
-175.906
-176.696
-177.458
-178.188
-178.885
-179.545
-180.166
-180.745
-181.279
-181.764
-182.198
-182.576
-182.897
-183.154
-183.344
-183.462
-183.505
-183.466
-183.342
-183.129
-182.821
-182.413
-181.902
-181.282
-180.549
-179.7
-178.729
-177.635
-176.413
-175.063
-173.583
-171.973
-170.232
-168.364
-166.368
-164.249
-162.01
-159.653
-157.184
-154.609
-151.935
-149.17
-146.321
-143.399
-140.416
-137.386
-134.323
-131.242
-128.156
-125.084
-122.041
-119.049
-116.126
-113.291
-110.563
-107.96
-105.503
-103.21
-101.102
-99.191
-97.491
-96.012
-94.762
-93.754
-92.998
-92.497
-92.252
-92.258
-92.512
-93.016
-93.771
-94.777
-96.026
-97.512
-99.225
-101.158
-103.303
-105.64
-108.144
-110.777
-113.492
-116.257
-119.041
-121.822
-124.589
-127.307
-129.919
-132.369
-134.59
-136.522
-138.153
-139.449
-140.34
-140.855
-141.084
-141.202
-141.558
-142.451
-143.962
-146.127
-148.971
-152.34
-156.044
-159.726
-162.53
-163.579
-162.475
-159.045
-153.387
-146.013
-137.376
-128.093
-119.665
-113.875
-111.967
-114.906
-122.956
-135.464
-151.853
-171.211
-191.337
-209.269
-221.918
-225.889
-218.542
-198.411
-163.621
-112.732
-45.981
35.422
128.014
225.8
324.671
421.647
513.804
600.839
677.576
734.454
763.855
757.645
715.329
646.617
561.453
469.023
375.539
279.317
179.255
80.927
-9.995
-85.054
-137.108
-169.643
-186.919
-193.545
-195.104
-190.571
-179.675
-164.252
-144.839
-124.362
-105.103
-87.399
-72.423
-60.845
-52.436
-47.119
-44.4
-43.351
-43.479
-44.307
-44.825
-44.186
-42.018
-38.157
-32.858
-26.703
-20.078
-13.457
-7.614
-3.087
-0.134
1.129
0.873
-0.593
-3.024
-6.068
-9.256
-12.277
-14.918
-17.019
-18.515
-19.34
-19.416
-18.739
-17.353
-15.284
-12.559
-9.2
-5.223
-0.689
4.323
9.736
15.483
21.509
27.766
34.191
40.707
47.251
53.782
60.276
66.721
73.105
79.42
85.667
91.866
98.039
104.204
110.372
116.545
122.722
128.905
135.092
141.277
147.454
153.61
159.736
165.823
171.86
177.825
183.693
189.431
195.02
200.449
205.716
210.822
215.776
220.599
225.327
230.008
234.672
239.331
243.982
248.615
253.225
257.808
262.362
266.871
271.306
275.631
279.8
283.756
287.418
290.677
293.396
295.44
296.699
297.093
296.561
295.045
292.491
288.851
284.085
278.167
271.084
262.821
253.386
242.823
231.209
218.666
205.349
191.41
176.984
162.203
147.185
132.054
116.942
101.971
87.269
72.974
59.218
46.14
33.858
22.44
11.929
2.333
-6.372
-14.205
-21.191
-27.368
-32.771
-37.442
-41.437
-44.809
-47.634
-50.014
-52.05
-53.846
-55.492
-57.044
-58.545
-60.025
-61.496
-62.967
-64.442
-65.91
-67.365
-68.807
-70.221
-71.596
-72.903
-74.093
-75.121
-75.953
-76.561
-76.936
-77.074
-76.973
-76.645
-76.11
-75.388
-74.506
-73.487
-72.347
-71.107
-69.793
-68.431
-67.061
-65.711
-64.406
-63.164
-62.001
-60.927
-59.953
-59.082
-58.31
-57.635
-57.054
-56.565
-56.169
-55.862
-55.642
-55.503
-55.439
-55.444
-55.516
-55.649
-55.839
-56.083
-56.375
-56.713
-57.096
-57.522
-57.986
-58.484
-59.012
-59.566
-60.141
-60.733
-61.338
-61.95
-62.568
-63.187
-63.805
-64.42
-65.03
-65.632
-66.225
-66.809
-67.383
-67.947
-68.5
-69.043
-69.575
-70.098
-70.611
-71.117
-71.614
-72.105
-72.588
-73.065
-73.536
-74.001
-74.46
-74.913
-75.358
-75.797
-76.227
-76.649
-77.06
-77.46
-77.847
-78.219
-78.576
-78.914
-79.23
-79.523
-79.789
-80.024
-80.225
-80.387
-80.508
-80.581
-80.604
-80.571
-80.478
-80.32
-80.093
-79.793
-79.413
-78.95
-78.401
-77.76
-77.025
-76.194
-75.264
-74.234
-73.103
-71.872
-70.542
-69.113
-67.588
-65.969
-64.259
-62.464
-60.589
-58.639
-56.623
-54.547
-52.423
-50.263
-48.079
-45.885
-43.693
-41.518
-39.376
-37.284
-35.261
-33.322
-31.483
-29.76
-28.171
-26.732
-25.463
-24.378
-23.491
-22.811
-22.35
-22.117
-22.125
-22.379
-22.882
-23.63
-24.62
-25.86
-27.357
-29.113
-31.13
-33.4
-35.911
-38.651
-41.608
-44.756
-48.065
-51.497
-55.006
-58.553
-62.103
-65.631
-69.119
-72.531
-75.813
-78.898
-81.707
-84.19
-86.336
-88.158
-89.657
-90.814
-91.651
-92.305
-93.051
-94.163
-95.798
-97.905
-100.361
-103.263
-106.748
-110.717
-114.736
-118.082
-120.126
-120.774
-120.289
-118.609
-115.52
-111.053
-105.728
-100.877
-98.037
-98.043
-101.05
-107.138
-116.398
-128.637
-142.953
-157.075
-167.851
-172.252
-167.698
-152.069
-123.406
-80.032
-21.19
52.254
137.829
231.921
330.265
428.444
521.531
604.161
671.25
718.526
743.037
743.476
719.872
673.279
606.189
522.514
427.251
326.086
224.621
127.745
39.643
-36.224
-97.447
-142.912
-173.111
-189.712
-194.878
-190.804
-179.542
-163.285
-144.399
-124.841
-105.56
-86.976
-69.337
-53.143
-39.408
-28.652
-20.613
-14.913
-11.443
-10.146
-10.965
-13.284
-15.701
-17.27
-17.732
-17.065
-15.42
-12.944
-9.686
-6.059
-2.95
-0.919
-0.149
-0.616
-2.012
-4.033
-6.467
-8.994
-11.176
-12.724
-13.471
-13.315
-12.309
-10.501
-7.911
-4.604
-0.662
3.855
8.884
14.347
20.177
26.282
32.552
38.915
45.313
51.7
58.044
64.311
70.477
76.541
82.513
88.397
94.197
99.914
105.556
111.151
116.729
122.316
127.939
133.612
139.34
145.126
150.96
156.822
162.69
168.541
174.353
180.117
185.818
191.438
196.957
202.343
207.577
212.653
217.565
222.31
226.897
231.34
235.677
239.965
244.243
248.529
252.828
257.123
261.408
265.681
269.935
274.165
278.346
282.437
286.402
290.199
293.757
296.984
299.753
301.906
303.324
303.921
303.628
302.401
300.188
296.93
292.591
287.136
280.542
272.8
263.889
253.811
242.624
230.414
217.321
203.518
189.144
174.322
159.175
143.812
128.353
112.933
97.664
82.668
68.088
54.059
40.73
28.224
16.605
5.911
-3.858
-12.735
-20.737
-27.881
-34.209
-39.751
-44.549
-48.66
-52.134
-55.044
-57.499
-59.606
-61.475
-63.203
-64.847
-66.451
-68.045
-69.64
-71.247
-72.869
-74.497
-76.123
-77.75
-79.364
-80.954
-82.495
-83.932
-85.223
-86.329
-87.222
-87.89
-88.331
-88.541
-88.531
-88.32
-87.93
-87.387
-86.714
-85.925
-85.041
-84.083
-83.079
-82.065
-81.07
-80.114
-79.216
-78.388
-77.641
-76.983
-76.416
-75.934
-75.535
-75.213
-74.966
-74.793
-74.692
-74.657
-74.684
-74.765
-74.895
-75.071
-75.289
-75.543
-75.83
-76.146
-76.489
-76.859
-77.253
-77.668
-78.102
-78.551
-79.012
-79.484
-79.964
-80.449
-80.939
-81.431
-81.925
-82.421
-82.918
-83.416
-83.915
-84.414
-84.914
-85.416
-85.92
-86.426
-86.936
-87.449
-87.967
-88.49
-89.017
-89.549
-90.085
-90.627
-91.173
-91.724
-92.28
-92.839
-93.402
-93.969
-94.537
-95.106
-95.673
-96.238
-96.796
-97.346
-97.885
-98.409
-98.917
-99.403
-99.866
-100.301
-100.705
-101.075
-101.407
-101.697
-101.941
-102.137
-102.281
-102.369
-102.399
-102.366
-102.269
-102.104
-101.869
-101.56
-101.176
-100.714
-100.171
-99.544
-98.833
-98.034
-97.148
-96.173
-95.11
-93.959
-92.722
-91.401
-89.997
-88.514
-86.956
-85.325
-83.627
-81.867
-80.049
-78.181
-76.269
-74.32
-72.343
-70.349
-68.347
-66.349
-64.368
-62.417
-60.509
-58.658
-56.879
-55.184
-53.586
-52.096
-50.727
-49.494
-48.41
-47.488
-46.742
-46.183
-45.819
-45.661
-45.716
-45.985
-46.468
-47.166
-48.081
-49.224
-50.605
-52.233
-54.114
-56.25
-58.635
-61.261
-64.111
-67.154
-70.358
-73.683
-77.09
-80.547
-84.023
-87.48
-90.873
-94.136
-97.201
-100.007
-102.493
-104.618
-106.365
-107.725
-108.716
-109.396
-109.816
-110.05
-110.202
-110.359
-110.638
-111.169
-112.051
-113.459
-115.622
-118.685
-122.7
-127.541
-132.825
-138.141
-143.136
-147.334
-150.218
-151.425
-150.809
-148.804
-146.453
-144.897
-145.104
-147.799
-153.473
-162.245
-173.662
-186.166
-197.04
-202.967
-200.631
-187.365
-160.822
-118.987
-60.744
13.635
101.261
196.686
294.24
389.664
481.475
569.898
652.517
721.967
766.079
773.313
738.745
667.85
574.972
473.172
371.857
273.126
173.368
75.636
-15.361
-92.894
-148.617
-184.477
-204.799
-214.209
-219.081
-219.44
-214.828
-206.308
-193.979
-180.323
-166.986
-153.505
-139.916
-125.953
-111.68
-98.3
-86.352
-75.721
-66.797
-60.042
-55.66
-53.771
-53.738
-54.135
-54.159
-53.618
-52.291
-50.158
-47.255
-43.538
-39.455
-35.911
-33.424
-32.142
-32.064
-32.916
-34.449
-36.555
-38.955
-41.221
-43.059
-44.248
-44.656
-44.32
-43.274
-41.51
-39.074
-36.016
-32.376
-28.229
-23.639
-18.651
-13.323
-7.698
-1.807
4.3
10.573
16.95
23.365
29.778
36.17
42.526
48.841
55.111
61.333
67.517
73.681
79.839
85.994
92.144
98.273
104.366
110.417
116.426
122.401
128.348
134.258
140.12
145.914
151.619
157.225
162.726
168.11
173.372
178.519
183.571
188.57
193.562
198.578
203.625
208.695
213.769
218.84
223.902
228.947
233.957
238.897
243.725
248.407
252.893
257.107
260.95
264.281
266.959
268.879
269.964
270.158
269.415
267.68
264.904
261.054
256.108
250.055
242.887
234.585
225.164
214.687
203.253
191.014
178.117
164.679
150.808
136.608
122.181
107.646
93.116
78.69
64.479
50.61
37.211
24.426
12.358
1.061
-9.44
-19.158
-28.106
-36.281
-43.695
-50.37
-56.331
-61.614
-66.258
-70.297
-73.797
-76.853
-79.562
-82.028
-84.33
-86.511
-88.605
-90.63
-92.602
-94.534
-96.429
-98.279
-100.077
-101.823
-103.509
-105.127
-106.65
-108.025
-109.211
-110.169
-110.875
-111.323
-111.51
-111.435
-111.108
-110.549
-109.779
-108.828
-107.716
-106.462
-105.086
-103.612
-102.071
-100.503
-98.938
-97.402
-95.915
-94.494
-93.153
-91.904
-90.753
-89.698
-88.74
-87.879
-87.113
-86.447
-85.882
-85.414
-85.041
-84.758
-84.562
-84.452
-84.422
-84.47
-84.59
-84.781
-85.037
-85.357
-85.738
-86.173
-86.659
-87.188
-87.754
-88.352
-88.974
-89.615
-90.268
-90.927
-91.586
-92.24
-92.886
-93.517
-94.129
-94.719
-95.283
-95.817
-96.318
-96.783
-97.208
-97.591
-97.93
-98.222
-98.465
-98.657
-98.796
-98.881
-98.91
-98.883
-98.799
-98.657
-98.457
-98.199
-97.882
-97.506
-97.072
-96.578
-96.025
-95.413
-94.743
-94.013
-93.225
-92.377
-91.468
-90.5
-89.47
-88.378
-87.224
-86.006
-84.726
-83.383
-81.977
-80.509
-78.981
-77.392
-75.746
-74.043
-72.287
-70.479
-68.622
-66.721
-64.778
-62.799
-60.788
-58.751
-56.695
-54.628
-52.561
-50.504
-48.465
-46.458
-44.495
-42.589
-40.751
-38.993
-37.326
-35.761
-34.31
-32.985
-31.801
-30.769
-29.902
-29.211
-28.704
-28.393
-28.282
-28.375
-28.672
-29.173
-29.884
-30.815
-31.978
-33.381
-35.029
-36.924
-39.058
-41.422
-43.999
-46.754
-49.652
-52.655
-55.725
-58.835
-61.953
-65.043
-68.062
-70.946
-73.63
-76.062
-78.189
-79.974
-81.406
-82.48
-83.225
-83.706
-83.977
-84.114
-84.211
-84.346
-84.632
-85.193
-86.119
-87.57
-89.752
-92.784
-96.708
-101.395
-106.469
-111.53
-116.224
-120.093
-122.655
-123.563
-122.674
-120.388
-117.654
-115.529
-114.909
-116.431
-120.525
-127.318
-136.411
-146.418
-154.89
-158.739
-154.943
-141.168
-115.245
-75.304
-20.251
49.895
132.341
221.714
312.878
402.143
488.776
573.743
654.052
721.76
764.386
770.438
737.234
670.633
583.29
486
382.827
275.36
165.096
60.164
-27.076
-88.538
-123.141
-139.034
-147.103
-153.771
-160.116
-162.874
-159.668
-151.318
-140.351
-129.616
-120.044
-111.054
-102.028
-92.51
-82.636
-72.681
-62.722
-53.143
-44.546
-37.444
-32.241
-28.789
-26.403
-24.545
-22.755
-20.626
-17.983
-14.724
-10.814
-6.573
-2.579
0.755
3.109
4.341
4.553
3.88
2.489
0.662
-1.261
-3.032
-4.472
-5.464
-5.973
-5.954
-5.36
-4.186
-2.461
-0.206
2.558
5.803
9.509
13.632
18.113
22.909
27.989
33.326
38.904
44.696
50.656
56.741
62.9
69.091
75.292
81.484
87.661
93.821
99.967
106.105
112.245
118.391
124.538
130.673
136.767
142.803
148.771
154.674
160.52
166.311
172.034
177.673
183.207
188.625
193.923
199.094
204.13
209.034
213.821
218.53
223.21
227.891
232.581
237.268
241.933
246.565
251.157
255.703
260.183
264.563
268.801
272.862
276.701
280.248
283.402
286.028
287.986
289.175
289.527
288.997
287.545
285.124
281.692
277.222
271.702
265.129
257.491
248.768
238.975
228.169
216.457
203.993
190.928
177.378
163.444
149.216
134.796
120.297
105.822
91.464
77.319
63.5
50.155
37.44
25.468
14.305
3.971
-5.553
-14.275
-22.193
-29.311
-35.642
-41.215
-46.066
-50.221
-53.708
-56.579
-58.917
-60.849
-62.506
-63.982
-65.342
-66.626
-67.857
-69.064
-70.274
-71.499
-72.738
-73.99
-75.254
-76.543
-77.863
-79.202
-80.523
-81.767
-82.881
-83.832
-84.603
-85.186
-85.581
-85.784
-85.805
-85.664
-85.388
-84.999
-84.512
-83.936
-83.283
-82.574
-81.837
-81.105
-80.406
-79.756
-79.171
-78.661
-78.235
-77.898
-77.649
-77.478
-77.379
-77.346
-77.375
-77.466
-77.613
-77.812
-78.056
-78.338
-78.652
-78.996
-79.363
-79.748
-80.148
-80.558
-80.977
-81.403
-81.835
-82.269
-82.703
-83.134
-83.559
-83.977
-84.384
-84.779
-85.16
-85.527
-85.879
-86.216
-86.539
-86.849
-87.146
-87.432
-87.708
-87.977
-88.24
-88.5
-88.758
-89.016
-89.277
-89.542
-89.812
-90.089
-90.373
-90.665
-90.965
-91.275
-91.593
-91.921
-92.257
-92.6
-92.951
-93.308
-93.669
-94.033
-94.396
-94.757
-95.113
-95.459
-95.793
-96.109
-96.405
-96.674
-96.912
-97.115
-97.276
-97.39
-97.453
-97.457
-97.399
-97.271
-97.071
-96.792
-96.43
-95.983
-95.446
-94.817
-94.095
-93.277
-92.364
-91.355
-90.251
-89.052
-87.761
-86.381
-84.916
-83.37
-81.749
-80.059
-78.309
-76.511
-74.674
-72.811
-70.936
-69.062
-67.204
-65.378
-63.597
-61.875
-60.226
-58.664
-57.207
-55.869
-54.666
-53.613
-52.723
-52.009
-51.482
-51.151
-51.021
-51.093
-51.372
-51.862
-52.573
-53.519
-54.708
-56.147
-57.842
-59.788
-61.98
-64.403
-67.033
-69.837
-72.784
-75.838
-78.968
-82.146
-85.331
-88.478
-91.528
-94.413
-97.075
-99.455
-101.503
-103.196
-104.522
-105.491
-106.142
-106.517
-106.667
-106.678
-106.637
-106.649
-106.843
-107.326
-108.25
-109.843
-112.241
-115.495
-119.515
-123.959
-128.448
-132.663
-136.167
-138.471
-139.277
-138.447
-136.329
-133.899
-132.111
-131.817
-133.788
-138.477
-146.061
-156.264
-167.726
-177.992
-184.324
-183.703
-173.397
-151.351
-115.348
-63.812
3.083
83.892
175.106
270.921
367.211
460.742
548.356
629.594
699.45
749.112
771.503
758.583
710.198
635.347
543.322
444.843
346.68
249.267
154.105
63.757
-18.228
-86.819
-139.36
-175.717
-197.054
-205.265
-201.978
-189.551
-170.858
-148.718
-125.999
-104.602
-85.614
-70.331
-59.822
-54.16
-52.972
-55.403
-59.997
-65.766
-71.864
-76.958
-80.011
-80.525
-78.246
-73.423
-66.71
-58.592
-49.697
-40.976
-33.112
-26.522
-21.457
-17.844
-15.48
-14.187
-13.659
-13.462
-13.292
-12.973
-12.426
-11.692
-10.819
-9.818
-8.712
-7.539
-6.303
-4.962
-3.459
-1.711
0.365
2.793
5.577
8.705
12.15
15.899
19.954
24.314
28.977
33.95
39.228
44.803
50.67
56.799
63.148
69.673
76.312
83.017
89.76
96.516
103.271
110.01
116.707
123.334
129.876
136.316
142.641
148.842
154.899
160.799
166.536
172.108
177.527
182.811
187.969
193.01
197.951
202.818
207.643
212.469
217.315
222.18
227.058
231.935
236.801
241.656
246.479
251.24
255.9
260.409
264.719
268.776
272.498
275.778
278.496
280.526
281.768
282.161
281.648
280.184
277.72
274.204
269.619
263.965
257.251
249.492
240.702
230.908
220.19
208.661
196.459
183.728
170.593
157.154
143.523
129.813
116.146
102.653
89.427
76.548
64.096
52.154
40.818
30.167
20.232
11.009
2.481
-5.38
-12.589
-19.158
-25.122
-30.53
-35.443
-39.934
-44.048
-47.821
-51.297
-54.527
-57.574
-60.493
-63.309
-66.027
-68.649
-71.176
-73.614
-75.97
-78.226
-80.36
-82.341
-84.131
-85.715
-87.082
-88.22
-89.12
-89.767
-90.152
-90.284
-90.179
-89.854
-89.325
-88.608
-87.717
-86.681
-85.53
-84.299
-83.022
-81.728
-80.437
-79.173
-77.954
-76.795
-75.712
-74.713
-73.799
-72.975
-72.245
-71.614
-71.086
-70.66
-70.334
-70.104
-69.968
-69.921
-69.959
-70.079
-70.276
-70.548
-70.89
-71.299
-71.774
-72.31
-72.903
-73.547
-74.236
-74.965
-75.726
-76.515
-77.324
-78.147
-78.98
-79.817
-80.652
-81.483
-82.304
-83.112
-83.903
-84.673
-85.42
-86.14
-86.832
-87.494
-88.125
-88.723
-89.288
-89.819
-90.318
-90.783
-91.215
-91.614
-91.982
-92.319
-92.626
-92.903
-93.154
-93.378
-93.578
-93.754
-93.91
-94.045
-94.161
-94.26
-94.342
-94.408
-94.458
-94.493
-94.511
-94.514
-94.501
-94.471
-94.424
-94.358
-94.273
-94.168
-94.041
-93.89
-93.714
-93.51
-93.276
-93.009
-92.707
-92.368
-91.987
-91.564
-91.095
-90.577
-90.007
-89.384
-88.704
-87.965
-87.165
-86.301
-85.372
-84.376
-83.314
-82.185
-80.988
-79.725
-78.397
-77.006
-75.554
-74.042
-72.474
-70.853
-69.184
-67.47
-65.718
-63.933
-62.123
-60.298
-58.468
-56.644
-54.835
-53.054
-51.314
-49.628
-48.013
-46.48
-45.043
-43.713
-42.503
-41.427
-40.498
-39.73
-39.129
-38.704
-38.461
-38.41
-38.558
-38.911
-39.469
-40.228
-41.184
-42.341
-43.705
-45.281
-47.072
-49.076
-51.282
-53.685
-56.276
-59.038
-61.943
-64.957
-68.033
-71.127
-74.204
-77.233
-80.196
-83.064
-85.784
-88.289
-90.505
-92.377
-93.895
-95.071
-95.907
-96.378
-96.508
-96.436
-96.443
-96.829
-97.77
-99.253
-101.185
-103.659
-106.83
-110.609
-114.577
-118.063
-120.469
-121.696
-122.005
-121.348
-119.495
-116.521
-112.944
-109.917
-108.838
-110.412
-114.682
-121.791
-131.859
-144.57
-158.986
-173.046
-183.816
-188.593
-185.013
-170.807
-144.062
-103.103
-46.938
23.807
107.238
199.615
295.424
390.675
481.889
566.621
645.093
712.059
758.933
778.544
762.084
710.891
635.32
543.353
445.569
346.226
242.825
140.25
43.193
-41.766
-105.44
-149.091
-176.108
-190.148
-197.102
-196.514
-188.071
-173.911
-155.184
-135.153
-116.279
-98.885
-83.617
-71.104
-61.625
-55.247
-51.498
-49.544
-48.879
-49.264
-50.254
-50.961
-50.464
-48.311
-44.477
-39.3
-33.216
-26.532
-19.7
-13.457
-8.44
-4.972
-3.137
-2.753
-3.528
-5.242
-7.593
-10.158
-12.635
-14.832
-16.631
-18.014
-18.947
-19.346
-19.159
-18.378
-16.994
-15.01
-12.436
-9.267
-5.535
-1.294
3.396
8.474
13.899
19.642
25.682
31.98
38.49
45.157
51.916
58.729
65.566
72.406
79.243
86.07
92.884
99.694
106.511
113.338
120.17
126.989
133.766
140.484
147.135
153.718
160.239
166.693
173.064
179.337
185.497
191.53
197.433
203.197
208.814
214.291
219.652
224.925
230.154
235.363
240.551
245.714
250.843
255.929
260.97
265.95
270.842
275.616
280.234
284.645
288.791
292.583
295.901
298.628
300.645
301.855
302.196
301.606
300.029
297.416
293.725
288.924
282.999
275.937
267.723
258.378
247.953
236.541
224.281
211.306
197.746
183.727
169.357
154.752
140.032
125.312
110.701
96.318
82.29
68.743
55.818
43.613
32.185
21.563
11.737
2.698
-5.562
-13.06
-19.823
-25.881
-31.27
-36.03
-40.201
-43.85
-47.07
-49.953
-52.602
-55.092
-57.465
-59.755
-61.982
-64.156
-66.29
-68.384
-70.428
-72.418
-74.35
-76.219
-78.017
-79.717
-81.272
-82.641
-83.79
-84.695
-85.352
-85.758
-85.915
-85.836
-85.538
-85.046
-84.387
-83.585
-82.657
-81.623
-80.508
-79.34
-78.159
-76.994
-75.869
-74.806
-73.819
-72.924
-72.131
-71.446
-70.868
-70.396
-70.029
-69.766
-69.611
-69.561
-69.616
-69.769
-70.017
-70.355
-70.779
-71.285
-71.867
-72.52
-73.239
-74.019
-74.858
-75.75
-76.688
-77.668
-78.68
-79.719
-80.777
-81.847
-82.921
-83.992
-85.054
-86.1
-87.124
-88.123
-89.089
-90.019
-90.909
-91.754
-92.552
-93.301
-93.998
-94.64
-95.229
-95.761
-96.238
-96.659
-97.025
-97.337
-97.597
-97.805
-97.964
-98.078
-98.147
-98.176
-98.167
-98.125
-98.052
-97.953
-97.831
-97.69
-97.535
-97.368
-97.194
-97.016
-96.836
-96.658
-96.485
-96.318
-96.16
-96.011
-95.872
-95.746
-95.63
-95.527
-95.434
-95.351
-95.275
-95.206
-95.141
-95.078
-95.014
-94.945
-94.868
-94.78
-94.676
-94.553
-94.407
-94.232
-94.023
-93.777
-93.489
-93.154
-92.767
-92.324
-91.821
-91.253
-90.616
-89.908
-89.125
-88.264
-87.323
-86.3
-85.195
-84.007
-82.736
-81.383
-79.951
-78.443
-76.86
-75.208
-73.491
-71.714
-69.883
-68.005
-66.086
-64.135
-62.161
-60.173
-58.185
-56.208
-54.255
-52.341
-50.48
-48.686
-46.975
-45.359
-43.85
-42.462
-41.204
-40.092
-39.138
-38.354
-37.751
-37.34
-37.129
-37.124
-37.332
-37.752
-38.382
-39.219
-40.262
-41.52
-42.999
-44.706
-46.645
-48.816
-51.213
-53.827
-56.642
-59.629
-62.755
-65.982
-69.272
-72.595
-75.917
-79.201
-82.4
-85.451
-88.286
-90.846
-93.07
-94.913
-96.353
-97.376
-97.999
-98.266
-98.221
-97.928
-97.48
-96.968
-96.513
-96.247
-96.281
-96.792
-98.018
-100.116
-103.144
-106.983
-111.256
-115.555
-119.533
-122.734
-124.642
-124.916
-123.454
-120.737
-117.876
-116.058
-116.274
-119.298
-125.674
-135.546
-148.414
-162.585
-175.176
-182.781
-181.975
-169.826
-143.804
-101.885
-43.127
31.78
120.38
218.712
321.855
424.707
521.741
607.18
675.785
723.25
746.694
745.042
718.677
669.044
599.102
513.107
416.101
313.739
211.467
113.943
25.313
-50.983
-112.757
-158.993
-189.941
-207.055
-212.079
-206.757
-193.4
-174.583
-152.717
-129.972
-107.807
-87.008
-68.532
-53.608
-42.782
-35.951
-32.644
-32.053
-33.539
-36.721
-40.759
-44.252
-46.272
-46.426
-44.646
-41.352
-36.972
-31.771
-26.354
-21.649
-18.218
-16.317
-15.996
-16.934
-18.809
-21.371
-24.185
-26.772
-28.842
-30.211
-30.804
-30.667
-29.793
-28.164
-25.832
-22.853
-19.282
-15.172
-10.547
-5.448
0.042
5.82
11.774
17.816
23.904
30.003
36.087
42.132
48.112
54.019
59.862
65.641
71.358
77.016
82.616
88.179
93.734
99.307
104.928
110.615
116.369
122.19
128.066
133.973
139.894
145.809
151.695
157.54
163.328
169.037
174.646
180.129
185.468
190.653
195.675
200.528
205.22
209.766
214.201
218.565
222.886
227.17
231.413
235.604
239.739
243.814
247.826
251.764
255.604
259.315
262.864
266.201
269.257
271.932
274.104
275.648
276.469
276.498
275.681
273.97
271.311
267.661
262.975
257.222
250.38
242.425
233.351
223.191
212.009
199.916
187.058
173.575
159.596
145.243
130.628
115.872
101.101
86.436
72.008
57.956
44.418
31.541
19.45
8.222
-2.094
-11.486
-19.975
-27.58
-34.325
-40.253
-45.4
-49.81
-53.546
-56.663
-59.242
-61.389
-63.211
-64.821
-66.315
-67.755
-69.192
-70.659
-72.172
-73.74
-75.368
-77.041
-78.753
-80.501
-82.268
-84.038
-85.782
-87.447
-88.986
-90.36
-91.538
-92.507
-93.258
-93.785
-94.097
-94.208
-94.136
-93.907
-93.539
-93.046
-92.446
-91.762
-91.016
-90.244
-89.472
-88.719
-88.002
-87.331
-86.715
-86.161
-85.671
-85.239
-84.86
-84.531
-84.247
-84.009
-83.814
-83.658
-83.537
-83.444
-83.377
-83.333
-83.31
-83.307
-83.32
-83.35
-83.397
-83.462
-83.547
-83.65
-83.771
-83.908
-84.062
-84.231
-84.415
-84.613
-84.825
-85.05
-85.288
-85.541
-85.809
-86.093
-86.393
-86.71
-87.044
-87.397
-87.769
-88.161
-88.573
-89.005
-89.457
-89.93
-90.421
-90.929
-91.452
-91.988
-92.534
-93.087
-93.643
-94.199
-94.752
-95.297
-95.83
-96.347
-96.843
-97.315
-97.757
-98.164
-98.532
-98.856
-99.129
-99.348
-99.506
-99.598
-99.62
-99.567
-99.433
-99.214
-98.904
-98.501
-97.998
-97.394
-96.683
-95.864
-94.935
-93.895
-92.743
-91.479
-90.105
-88.623
-87.036
-85.346
-83.559
-81.678
-79.71
-77.661
-75.538
-73.348
-71.1
-68.802
-66.466
-64.103
-61.725
-59.346
-56.98
-54.642
-52.347
-50.112
-47.951
-45.88
-43.911
-42.06
-40.34
-38.764
-37.349
-36.107
-35.051
-34.192
-33.541
-33.105
-32.891
-32.901
-33.134
-33.59
-34.269
-35.178
-36.326
-37.718
-39.359
-41.25
-43.385
-45.756
-48.347
-51.131
-54.075
-57.145
-60.302
-63.514
-66.748
-69.966
-73.121
-76.154
-79
-81.602
-83.901
-85.851
-87.428
-88.62
-89.44
-89.931
-90.133
-90.11
-89.949
-89.744
-89.61
-89.68
-90.065
-90.927
-92.485
-94.881
-98.167
-102.248
-106.79
-111.406
-115.749
-119.369
-121.752
-122.583
-121.763
-119.632
-117.136
-115.333
-115.15
-117.452
-122.882
-131.574
-143.093
-156.076
-168.006
-175.869
-176.476
-166.742
-144.129
-106.571
-52.76
17.034
101.092
195.513
294.136
392.133
485.406
570.974
648.769
713.641
756.675
770.488
746.733
686.948
603.117
505.033
402.886
301.137
195.328
88.148
-12.663
-98.885
-158.488
-189.425
-200.095
-197.967
-191.927
-186.229
-177.991
-166.67
-152.905
-137.3
-122.176
-108.555
-96.054
-84.736
-74.997
-66.707
-59.464
-53.396
-48.741
-45.655
-44.417
-44.501
-44.54
-43.844
-42.27
-39.604
-35.908
-31.265
-25.632
-19.54
-13.969
-9.474
-6.288
-4.457
-3.738
-3.938
-4.946
-6.468
-8.095
-9.548
-10.654
-11.338
-11.626
-11.507
-10.929
-9.851
-8.266
-6.179
-3.597
-0.545
2.96
6.887
11.188
15.818
20.749
25.948
31.394
37.076
42.961
49.018
55.211
61.486
67.8
74.133
80.465
86.787
93.101
99.402
105.689
111.969
118.232
124.462
130.641
136.748
142.772
148.716
154.579
160.362
166.057
171.65
177.136
182.518
187.793
192.962
198.032
203.011
207.931
212.836
217.757
222.706
227.677
232.648
237.605
242.541
247.444
252.293
257.052
261.67
266.104
270.311
274.224
277.753
280.77
283.14
284.758
285.556
285.485
284.513
282.598
279.694
275.774
270.829
264.86
257.866
249.845
240.795
230.756
219.822
208.124
195.806
182.98
169.735
156.154
142.327
128.355
114.34
100.375
86.542
72.945
59.709
46.966
34.845
23.428
12.747
2.806
-6.398
-14.858
-22.558
-29.497
-35.694
-41.175
-45.965
-50.092
-53.593
-56.537
-59.033
-61.188
-63.103
-64.853
-66.479
-68.012
-69.485
-70.924
-72.35
-73.776
-75.197
-76.614
-78.034
-79.457
-80.875
-82.257
-83.545
-84.694
-85.667
-86.438
-87
-87.347
-87.475
-87.39
-87.108
-86.648
-86.034
-85.283
-84.406
-83.42
-82.347
-81.214
-80.058
-78.907
-77.783
-76.704
-75.682
-74.727
-73.85
-73.052
-72.328
-71.675
-71.089
-70.569
-70.117
-69.73
-69.405
-69.138
-68.924
-68.759
-68.642
-68.569
-68.538
-68.547
-68.594
-68.677
-68.799
-68.957
-69.149
-69.375
-69.631
-69.915
-70.224
-70.557
-70.91
-71.281
-71.669
-72.072
-72.489
-72.919
-73.361
-73.814
-74.279
-74.755
-75.241
-75.738
-76.245
-76.763
-77.29
-77.827
-78.373
-78.928
-79.491
-80.06
-80.635
-81.214
-81.796
-82.38
-82.963
-83.545
-84.123
-84.696
-85.262
-85.819
-86.364
-86.896
-87.412
-87.909
-88.384
-88.834
-89.256
-89.647
-90.003
-90.32
-90.596
-90.827
-91.009
-91.14
-91.214
-91.23
-91.185
-91.073
-90.894
-90.643
-90.318
-89.917
-89.438
-88.879
-88.238
-87.514
-86.706
-85.813
-84.835
-83.772
-82.622
-81.388
-80.069
-78.667
-77.185
-75.625
-73.991
-72.285
-70.513
-68.678
-66.787
-64.844
-62.856
-60.829
-58.769
-56.686
-54.585
-52.477
-50.37
-48.276
-46.208
-44.176
-42.194
-40.277
-38.437
-36.689
-35.045
-33.517
-32.117
-30.854
-29.74
-28.787
-28.006
-27.407
-26.998
-26.787
-26.781
-26.984
-27.399
-28.023
-28.854
-29.888
-31.126
-32.577
-34.248
-36.144
-38.27
-40.621
-43.194
-45.982
-48.966
-52.118
-55.404
-58.785
-62.223
-65.689
-69.144
-72.547
-75.849
-78.978
-81.866
-84.453
-86.681
-88.516
-89.931
-90.91
-91.464
-91.63
-91.459
-91.04
-90.469
-89.843
-89.291
-88.93
-88.913
-89.476
-90.788
-92.94
-95.9
-99.41
-103.147
-106.834
-110.073
-112.371
-113.399
-112.95
-111.241
-109.151
-107.598
-107.456
-109.624
-114.704
-122.989
-134.362
-147.685
-160.639
-170.523
-174.299
-168.895
-151.75
-120.487
-73.483
-10.584
66.814
156.036
253.268
353.997
453.249
545.375
625.034
687.32
728.165
745.325
737.531
705.689
653.545
584.152
500.407
404.98
298.035
185.142
76.994
-16.386
-83.722
-122.829
-141.475
-147.343
-149.227
-150.421
-147.771
-140.285
-127.937
-112.372
-97.263
-83.918
-72.42
-63.066
-55.457
-49.6
-45.569
-42.72
-40.683
-39.44
-38.711
-38.023
-36.919
-34.787
-31.33
-26.733
-21.173
-14.856
-8.221
-1.826
3.857
8.398
11.583
13.473
14.183
13.896
12.921
11.627
10.281
9.056
8.028
7.181
6.522
6.078
5.855
5.845
6.059
6.534
7.335
8.524
10.121
12.107
14.437
17.067
19.979
23.167
26.63
30.362
34.35
38.582
43.052
47.748
52.649
57.715
62.886
68.118
73.383
78.664
83.957
89.251
94.521
99.75
104.927
110.043
115.101
120.09
124.996
129.805
134.502
139.092
143.599
148.039
152.424
156.773
161.102
165.447
169.865
174.389
179.033
183.796
188.658
193.602
198.615
203.68
208.78
213.879
218.919
223.846
228.609
233.135
237.347
241.13
244.333
246.838
248.552
249.407
249.368
248.394
246.447
243.503
239.543
234.563
228.577
221.59
213.606
204.655
194.778
184.068
172.667
160.691
148.24
135.401
122.242
108.848
95.309
81.701
68.107
54.607
41.286
28.26
15.643
3.53
-7.988
-18.867
-29.103
-38.673
-47.561
-55.75
-63.22
-69.977
-76.035
-81.401
-86.097
-90.156
-93.631
-96.614
-99.194
-101.444
-103.444
-105.242
-106.87
-108.37
-109.768
-111.085
-112.342
-113.544
-114.693
-115.797
-116.858
-117.862
-118.786
-119.581
-120.209
-120.644
-120.859
-120.844
-120.593
-120.104
-119.382
-118.447
-117.316
-116.011
-114.553
-112.959
-111.251
-109.457
-107.606
-105.737
-103.882
-102.064
-100.306
-98.624
-97.033
-95.544
-94.162
-92.887
-91.718
-90.656
-89.699
-88.851
-88.11
-87.473
-86.936
-86.495
-86.144
-85.882
-85.703
-85.604
-85.581
-85.629
-85.746
-85.928
-86.172
-86.471
-86.819
-87.211
-87.639
-88.096
-88.576
-89.072
-89.576
-90.082
-90.585
-91.078
-91.558
-92.019
-92.457
-92.867
-93.247
-93.593
-93.903
-94.174
-94.404
-94.592
-94.737
-94.837
-94.892
-94.902
-94.866
-94.784
-94.659
-94.491
-94.281
-94.032
-93.747
-93.428
-93.079
-92.703
-92.304
-91.885
-91.452
-91.007
-90.556
-90.101
-89.648
-89.2
-88.761
-88.334
-87.923
-87.531
-87.16
-86.812
-86.491
-86.197
-85.934
-85.701
-85.501
-85.333
-85.199
-85.098
-85.03
-84.994
-84.988
-85.012
-85.061
-85.134
-85.227
-85.337
-85.458
-85.588
-85.72
-85.85
-85.973
-86.084
-86.177
-86.246
-86.286
-86.291
-86.256
-86.174
-86.04
-85.849
-85.595
-85.275
-84.882
-84.412
-83.863
-83.228
-82.505
-81.691
-80.783
-79.777
-78.673
-77.469
-76.166
-74.762
-73.26
-71.661
-69.969
-68.186
-66.317
-64.367
-62.341
-60.246
-58.089
-55.877
-53.619
-51.323
-48.999
-46.659
-44.314
-41.979
-39.667
-37.392
-35.17
-33.017
-30.948
-28.978
-27.119
-25.386
-23.791
-22.348
-21.07
-19.971
-19.063
-18.358
-17.866
-17.594
-17.551
-17.74
-18.161
-18.813
-19.695
-20.809
-22.167
-23.775
-25.639
-27.763
-30.143
-32.773
-35.645
-38.739
-42.021
-45.457
-49.004
-52.621
-56.28
-59.94
-63.559
-67.085
-70.442
-73.563
-76.386
-78.856
-80.938
-82.608
-83.853
-84.686
-85.152
-85.311
-85.253
-85.08
-84.885
-84.794
-84.92
-85.411
-86.498
-88.347
-91.043
-94.556
-98.634
-102.965
-107.284
-111.199
-114.208
-115.96
-116.215
-115.123
-113.498
-112.183
-111.977
-113.727
-118.013
-125.127
-135.031
-146.734
-158.062
-166.462
-169.041
-162.809
-145.286
-114.149
-67.665
-5.477
71.225
159.956
257.045
358.062
458.186
551.879
633.699
698.58
742.29
762.425
757.709
728.842
679.093
611.396
528.739
434.2
328.727
217.59
110.567
16.789
-53.508
-97.742
-122.406
-134.204
-140.852
-145.484
-145.457
-139.981
-129.335
-115.317
-101.451
-89.105
-78.492
-69.985
-63.325
-58.63
-55.938
-54.477
-53.75
-53.606
-53.654
-53.411
-52.437
-50.104
-46.152
-40.843
-34.417
-27.163
-19.59
-12.274
-5.709
-0.36
3.547
6.072
7.332
7.535
7.007
6.107
5.123
4.255
3.596
3.148
2.919
2.92
3.152
3.629
4.377
5.445
6.907
8.82
11.205
14.051
17.318
20.96
24.939
29.23
33.815
38.685
43.826
49.231
54.89
60.774
66.849
73.07
79.377
85.731
92.11
98.499
104.895
111.3
117.709
124.119
130.528
136.919
143.268
149.555
155.759
161.868
167.879
173.79
179.602
185.311
190.908
196.387
201.748
206.991
212.117
217.136
222.065
226.93
231.772
236.613
241.459
246.313
251.166
256.011
260.843
265.648
270.396
275.055
279.584
283.926
288.02
291.777
295.079
297.813
299.856
301.108
301.502
300.974
299.463
296.919
293.292
288.546
282.673
275.666
267.517
258.261
247.947
236.667
224.562
211.761
198.402
184.62
170.521
156.222
141.85
127.52
113.351
99.472
85.987
73.005
60.648
48.994
38.095
27.979
18.623
10.015
2.138
-5.037
-11.535
-17.383
-22.631
-27.323
-31.511
-35.277
-38.688
-41.813
-44.739
-47.519
-50.192
-52.787
-55.309
-57.761
-60.149
-62.469
-64.713
-66.88
-68.957
-70.928
-72.777
-74.465
-75.96
-77.24
-78.276
-79.058
-79.583
-79.848
-79.867
-79.66
-79.242
-78.637
-77.869
-76.955
-75.919
-74.786
-73.584
-72.346
-71.104
-69.881
-68.699
-67.576
-66.526
-65.562
-64.691
-63.915
-63.235
-62.652
-62.168
-61.785
-61.503
-61.321
-61.236
-61.244
-61.342
-61.525
-61.792
-62.138
-62.559
-63.052
-63.612
-64.238
-64.925
-65.67
-66.466
-67.308
-68.189
-69.103
-70.045
-71.007
-71.983
-72.966
-73.951
-74.931
-75.903
-76.86
-77.798
-78.711
-79.597
-80.451
-81.27
-82.052
-82.793
-83.491
-84.146
-84.755
-85.319
-85.836
-86.307
-86.732
-87.113
-87.45
-87.744
-87.998
-88.214
-88.393
-88.539
-88.654
-88.741
-88.803
-88.843
-88.865
-88.873
-88.869
-88.857
-88.841
-88.823
-88.807
-88.795
-88.79
-88.796
-88.813
-88.846
-88.894
-88.961
-89.047
-89.152
-89.278
-89.424
-89.588
-89.77
-89.968
-90.18
-90.404
-90.635
-90.872
-91.111
-91.349
-91.58
-91.802
-92.009
-92.197
-92.361
-92.496
-92.596
-92.657
-92.672
-92.637
-92.547
-92.396
-92.18
-91.892
-91.528
-91.084
-90.555
-89.937
-89.226
-88.419
-87.513
-86.508
-85.402
-84.195
-82.887
-81.481
-79.978
-78.383
-76.698
-74.929
-73.081
-71.159
-69.171
-67.125
-65.027
-62.888
-60.719
-58.531
-56.339
-54.155
-51.994
-49.873
-47.807
-45.813
-43.905
-42.097
-40.404
-38.838
-37.413
-36.146
-35.05
-34.137
-33.42
-32.907
-32.608
-32.53
-32.676
-33.045
-33.635
-34.446
-35.481
-36.751
-38.266
-40.03
-42.046
-44.313
-46.822
-49.564
-52.521
-55.658
-58.941
-62.328
-65.782
-69.273
-72.761
-76.201
-79.537
-82.693
-85.598
-88.19
-90.411
-92.227
-93.619
-94.575
-95.112
-95.269
-95.104
-94.707
-94.183
-93.638
-93.204
-92.997
-93.182
-94.005
-95.628
-98.115
-101.384
-105.113
-108.94
-112.587
-115.665
-117.698
-118.403
-117.673
-115.87
-114.007
-113.057
-113.847
-117.109
-123.251
-132.375
-144.122
-157.056
-168.631
-176.052
-176.29
-166.623
-145.065
-109.486
-58.386
7.963
88.061
178.321
272.849
367.605
459.503
545.672
626.038
695.628
745.46
768.209
755.556
707.536
633.546
543.14
447.247
352.479
259.004
168.202
82.123
3.772
-62.209
-113.616
-150.499
-174.182
-187.007
-190.887
-187.563
-178.877
-166.607
-152.498
-137.794
-122.977
-108.306
-94.221
-81.377
-70.519
-61.969
-55.57
-51.106
-48.416
-47.343
-47.497
-47.964
-47.748
-46.302
-43.449
-39.313
-34.209
-28.405
-22.314
-16.675
-12.096
-8.876
-7.13
-6.702
-7.331
-8.807
-10.814
-12.942
-14.92
-16.58
-17.814
-18.608
-18.911
-18.636
-17.769
-16.328
-14.322
-11.778
-8.702
-5.098
-1.013
3.488
8.343
13.496
18.923
24.61
30.526
36.631
42.87
49.178
55.517
61.861
68.187
74.489
80.762
87.005
93.233
99.465
105.71
111.973
118.246
124.511
130.746
136.941
143.091
149.204
155.286
161.329
167.323
173.248
179.082
184.812
190.43
195.923
201.285
206.52
211.644
216.695
221.721
226.75
231.791
236.834
241.851
246.829
251.758
256.627
261.417
266.089
270.598
274.905
278.968
282.723
286.077
288.902
291.055
292.43
292.957
292.592
291.308
289.067
285.827
281.564
276.27
269.951
262.609
254.232
244.81
234.376
223.015
210.864
198.074
184.76
171.016
156.92
142.554
128.022
113.431
98.868
84.417
70.176
56.264
42.84
30.056
18.014
6.766
-3.684
-13.339
-22.187
-30.209
-37.398
-43.762
-49.333
-54.142
-58.206
-61.557
-64.257
-66.402
-68.131
-69.576
-70.83
-71.959
-72.998
-73.982
-74.953
-75.944
-76.971
-78.036
-79.138
-80.28
-81.478
-82.734
-84.026
-85.312
-86.526
-87.611
-88.537
-89.282
-89.837
-90.198
-90.36
-90.329
-90.127
-89.778
-89.302
-88.713
-88.02
-87.236
-86.384
-85.494
-84.599
-83.728
-82.898
-82.123
-81.416
-80.784
-80.231
-79.756
-79.35
-79.006
-78.718
-78.483
-78.299
-78.164
-78.072
-78.016
-77.991
-77.992
-78.016
-78.059
-78.117
-78.186
-78.265
-78.353
-78.449
-78.554
-78.665
-78.78
-78.899
-79.019
-79.14
-79.259
-79.375
-79.486
-79.593
-79.694
-79.79
-79.881
-79.968
-80.051
-80.132
-80.21
-80.289
-80.369
-80.451
-80.538
-80.629
-80.727
-80.832
-80.945
-81.068
-81.201
-81.344
-81.499
-81.666
-81.845
-82.036
-82.239
-82.454
-82.681
-82.919
-83.169
-83.428
-83.698
-83.977
-84.265
-84.561
-84.864
-85.173
-85.486
-85.804
-86.123
-86.444
-86.764
-87.082
-87.395
-87.703
-88.003
-88.292
-88.57
-88.832
-89.077
-89.302
-89.505
-89.683
-89.834
-89.955
-90.043
-90.097
-90.113
-90.09
-90.025
-89.915
-89.758
-89.552
-89.294
-88.981
-88.611
-88.182
-87.692
-87.137
-86.515
-85.825
-85.063
-84.229
-83.319
-82.333
-81.27
-80.128
-78.909
-77.612
-76.238
-74.789
-73.267
-71.675
-70.016
-68.295
-66.515
-64.682
-62.801
-60.878
-58.921
-56.936
-54.931
-52.917
-50.905
-48.907
-46.933
-44.999
-43.118
-41.305
-39.573
-37.935
-36.404
-34.992
-33.71
-32.572
-31.592
-30.782
-30.154
-29.717
-29.48
-29.452
-29.637
-30.037
-30.649
-31.473
-32.508
-33.763
-35.246
-36.964
-38.923
-41.124
-43.56
-46.224
-49.099
-52.158
-55.367
-58.69
-62.088
-65.529
-68.98
-72.402
-75.75
-78.959
-81.959
-84.688
-87.083
-89.1
-90.719
-91.927
-92.741
-93.21
-93.371
-93.297
-93.084
-92.822
-92.635
-92.658
-92.996
-93.834
-95.418
-97.902
-101.344
-105.61
-110.299
-114.994
-119.336
-122.843
-124.991
-125.426
-124.06
-121.422
-118.653
-116.971
-117.398
-120.737
-127.591
-138.113
-151.729
-166.677
-180
-188.183
-187.755
-175.69
-149.227
-106.308
-46.042
30.856
121.7
222.289
327.561
432.122
530.072
615.471
682.713
727.103
745.806
738.602
707.587
655.521
585.326
497.841
393.31
275.727
153.131
38.934
-52.993
-115.831
-151.12
-168.239
-178.058
-186.869
-195.266
-199.606
-197.237
-188.234
-174.772
-160.267
-146.043
-131.763
-117.311
-102.53
-88.06
-75.126
-64.045
-54.753
-47.592
-42.737
-40.146
-39.495
-39.687
-39.523
-38.498
-36.473
-33.394
-29.426
-24.73
-19.625
-14.894
-11.208
-8.846
-7.873
-8.126
-9.32
-11.255
-13.672
-16.162
-18.432
-20.298
-21.62
-22.382
-22.583
-22.169
-21.137
-19.519
-17.329
-14.601
-11.38
-7.684
-3.562
0.928
5.752
10.867
16.244
21.862
27.68
33.66
39.762
45.933
52.138
58.352
64.558
70.756
76.954
83.157
89.371
95.609
101.872
108.157
114.454
120.734
126.981
133.181
139.333
145.446
151.519
157.54
163.489
169.344
175.09
180.722
186.235
191.619
196.877
202.025
207.099
212.152
217.218
222.308
227.416
232.52
237.606
242.667
247.694
252.666
257.544
262.279
266.828
271.146
275.163
278.783
281.87
284.277
285.89
286.633
286.456
285.327
283.202
280.037
275.804
270.501
264.133
256.708
248.218
238.661
228.079
216.565
204.266
191.34
177.91
164.076
149.922
135.535
121.022
106.49
92.026
77.71
63.636
49.919
36.711
24.157
12.351
1.338
-8.887
-18.334
-26.993
-34.853
-41.908
-48.169
-53.668
-58.432
-62.479
-65.835
-68.558
-70.74
-72.517
-74.016
-75.326
-76.506
-77.591
-78.612
-79.609
-80.612
-81.639
-82.691
-83.769
-84.878
-86.037
-87.25
-88.5
-89.748
-90.93
-91.992
-92.904
-93.648
-94.217
-94.608
-94.815
-94.848
-94.728
-94.479
-94.122
-93.67
-93.13
-92.516
-91.849
-91.157
-90.474
-89.827
-89.232
-88.705
-88.255
-87.89
-87.615
-87.426
-87.315
-87.273
-87.294
-87.375
-87.513
-87.706
-87.946
-88.229
-88.546
-88.894
-89.268
-89.664
-90.076
-90.502
-90.938
-91.382
-91.834
-92.293
-92.756
-93.221
-93.686
-94.148
-94.607
-95.059
-95.503
-95.937
-96.361
-96.773
-97.174
-97.564
-97.943
-98.312
-98.673
-99.026
-99.373
-99.714
-100.052
-100.387
-100.72
-101.053
-101.386
-101.72
-102.055
-102.391
-102.729
-103.07
-103.412
-103.755
-104.099
-104.443
-104.786
-105.127
-105.463
-105.794
-106.118
-106.432
-106.735
-107.025
-107.299
-107.554
-107.788
-107.998
-108.181
-108.333
-108.449
-108.528
-108.563
-108.552
-108.492
-108.377
-108.206
-107.973
-107.675
-107.31
-106.873
-106.362
-105.774
-105.106
-104.355
-103.521
-102.602
-101.597
-100.506
-99.33
-98.069
-96.725
-95.3
-93.796
-92.216
-90.564
-88.843
-87.059
-85.216
-83.321
-81.382
-79.409
-77.412
-75.403
-73.393
-71.396
-69.425
-67.494
-65.616
-63.802
-62.066
-60.417
-58.869
-57.436
-56.132
-54.968
-53.957
-53.109
-52.433
-51.94
-51.635
-51.518
-51.591
-51.855
-52.315
-52.985
-53.878
-54.999
-56.356
-57.949
-59.773
-61.821
-64.075
-66.501
-69.065
-71.728
-74.453
-77.213
-79.975
-82.698
-85.335
-87.818
-90.085
-92.084
-93.767
-95.101
-96.075
-96.684
-96.957
-96.951
-96.733
-96.396
-96.04
-95.764
-95.686
-95.917
-96.593
-97.918
-100.042
-103.032
-106.849
-111.244
-115.886
-120.468
-124.574
-127.704
-129.498
-129.712
-128.475
-126.513
-124.655
-123.766
-124.72
-128.105
-134.243
-143.117
-153.805
-164.322
-172.231
-174.563
-168.372
-151.39
-121.233
-75.97
-15.244
60.108
147.017
239.767
334.148
426.882
515.137
598.849
672.441
726.14
751.941
740.47
692.555
618.89
528.003
431.054
332.884
230.94
130.128
35.118
-47.708
-109.01
-150.232
-175.184
-187.99
-195.052
-196.116
-190.787
-180.635
-166.259
-150.713
-136.049
-122.086
-109.042
-96.912
-85.798
-76.421
-68.816
-62.46
-57.386
-53.707
-51.405
-50.304
-49.538
-48.108
-45.643
-42.144
-37.668
-32.416
-26.549
-20.356
-14.583
-9.884
-6.535
-4.615
-3.958
-4.296
-5.445
-7.143
-9.013
-10.78
-12.266
-13.357
-14.045
-14.323
-14.149
-13.503
-12.362
-10.703
-8.519
-5.813
-2.601
1.081
5.192
9.685
14.524
19.683
25.134
30.854
36.821
43.007
49.385
55.916
62.543
69.22
75.921
82.631
89.352
96.082
102.815
109.551
116.289
123.023
129.74
136.418
143.029
149.553
155.979
162.305
168.536
174.674
180.712
186.635
192.435
198.112
203.669
209.11
214.435
219.65
224.771
229.828
234.846
239.835
244.79
249.698
254.541
259.295
263.934
268.429
272.733
276.791
280.546
283.929
286.873
289.308
291.142
292.279
292.637
292.148
290.768
288.459
285.183
280.923
275.679
269.459
262.299
254.236
245.305
235.572
225.108
213.994
202.345
190.277
177.896
165.313
152.629
139.947
127.39
115.056
103.019
91.351
80.1
69.329
59.111
49.487
40.483
32.116
24.372
17.238
10.706
4.746
-0.682
-5.626
-10.164
-14.352
-18.221
-21.808
-25.14
-28.255
-31.213
-34.046
-36.774
-39.412
-41.965
-44.438
-46.846
-49.181
-51.419
-53.534
-55.479
-57.228
-58.773
-60.106
-61.221
-62.112
-62.763
-63.173
-63.354
-63.317
-63.075
-62.639
-62.015
-61.223
-60.293
-59.256
-58.146
-56.992
-55.812
-54.623
-53.443
-52.284
-51.161
-50.082
-49.048
-48.061
-47.127
-46.25
-45.436
-44.685
-43.995
-43.364
-42.787
-42.263
-41.79
-41.365
-40.986
-40.652
-40.36
-40.111
-39.904
-39.74
-39.613
-39.524
-39.467
-39.439
-39.438
-39.46
-39.5
-39.556
-39.625
-39.703
-39.789
-39.88
-39.973
-40.067
-40.16
-40.25
-40.335
-40.415
-40.487
-40.552
-40.608
-40.656
-40.695
-40.726
-40.748
-40.761
-40.766
-40.764
-40.755
-40.738
-40.715
-40.687
-40.654
-40.618
-40.579
-40.538
-40.497
-40.457
-40.418
-40.382
-40.35
-40.321
-40.297
-40.277
-40.263
-40.255
-40.252
-40.255
-40.263
-40.278
-40.299
-40.326
-40.357
-40.393
-40.433
-40.475
-40.519
-40.563
-40.606
-40.646
-40.682
-40.712
-40.734
-40.746
-40.746
-40.732
-40.7
-40.648
-40.574
-40.474
-40.345
-40.185
-39.99
-39.758
-39.485
-39.17
-38.807
-38.396
-37.931
-37.411
-36.833
-36.193
-35.488
-34.717
-33.877
-32.966
-31.984
-30.929
-29.801
-28.6
-27.326
-25.981
-24.567
-23.084
-21.537
-19.928
-18.262
-16.544
-14.779
-12.975
-11.139
-9.282
-7.414
-5.546
-3.691
-1.86
-0.068
1.671
3.347
4.946
6.456
7.866
9.161
10.327
11.35
12.219
12.92
13.443
13.778
13.917
13.858
13.598
13.135
12.467
11.583
10.472
9.127
7.539
5.704
3.627
1.313
-1.222
-3.953
-6.85
-9.878
-13.005
-16.2
-19.434
-22.67
-25.867
-28.967
-31.909
-34.636
-37.09
-39.224
-41.014
-42.451
-43.55
-44.354
-44.903
-45.252
-45.483
-45.682
-45.958
-46.436
-47.219
-48.452
-50.349
-53.052
-56.62
-60.969
-65.764
-70.608
-75.147
-78.927
-81.447
-82.403
-81.686
-79.632
-77.202
-75.455
-75.35
-77.794
-83.4
-92.291
-104.036
-117.237
-129.363
-137.435
-138.293
-128.816
-106.45
-69.306
-16.218
52.502
134.812
227.675
325.985
423.969
517.447
601.239
672.473
729.398
765.915
778.563
763.918
718.841
649.529
562.753
465.342
366.395
268.775
174.659
88.12
11.223
-52.751
-101.157
-134.434
-154.105
-162.141
-160.855
-152.585
-139.323
-123.287
-106.691
-90.464
-74.827
-60.057
-46.369
-34.235
-24.353
-16.662
-10.68
-6.443
-4.025
-3.395
-4.323
-5.871
-6.971
-7.22
-6.591
-5.118
-2.979
-0.297
2.686
5.285
6.881
7.232
6.329
4.396
1.779
-1.239
-4.364
-7.204
-9.469
-11.004
-11.714
-11.602
-10.715
-9.08
-6.75
-3.806
-0.297
3.734
8.22
13.091
18.25
23.578
28.991
34.439
39.879
45.287
50.641
55.912
61.096
66.206
71.252
76.244
81.19
86.093
90.964
95.831
100.719
105.656
110.659
115.726
120.846
126.007
131.195
136.403
141.623
146.836
152.019
157.154
162.213
167.186
172.071
176.86
181.551
186.151
190.674
195.157
199.656
204.204
208.823
213.514
218.26
223.056
227.899
232.782
237.696
242.616
247.496
252.299
256.978
261.457
265.643
269.403
272.575
275.031
276.677
277.437
277.262
276.095
273.871
270.551
266.097
260.48
253.692
245.713
236.539
226.224
214.85
202.551
189.501
175.84
161.688
147.169
132.388
117.465
102.527
87.686
73.058
58.777
44.971
31.78
19.324
7.667
-3.153
-13.136
-22.314
-30.704
-38.323
-45.207
-51.385
-56.892
-61.78
-66.095
-69.897
-73.283
-76.347
-79.187
-81.892
-84.51
-87.08
-89.628
-92.158
-94.676
-97.184
-99.669
-102.122
-104.543
-106.916
-109.23
-111.46
-113.557
-115.48
-117.194
-118.672
-119.906
-120.891
-121.625
-122.121
-122.397
-122.474
-122.379
-122.136
-121.76
-121.274
-120.7
-120.067
-119.412
-118.763
-118.145
-117.575
-117.07
-116.639
-116.295
-116.04
-115.872
-115.789
-115.788
-115.868
-116.03
-116.272
-116.59
-116.98
-117.435
-117.952
-118.526
-119.153
-119.829
-120.549
-121.31
-122.109
-122.944
-123.813
-124.71
-125.631
-126.573
-127.529
-128.496
-129.469
-130.443
-131.413
-132.376
-133.329
-134.27
-135.194
-136.101
-136.989
-137.856
-138.701
-139.524
-140.325
-141.103
-141.859
-142.593
-143.307
-144
-144.674
-145.329
-145.967
-146.59
-147.198
-147.792
-148.374
-148.946
-149.509
-150.063
-150.611
-151.153
-151.691
-152.227
-152.761
-153.295
-153.83
-154.368
-154.908
-155.451
-155.998
-156.548
-157.101
-157.658
-158.216
-158.776
-159.337
-159.898
-160.457
-161.013
-161.565
-162.11
-162.648
-163.175
-163.69
-164.189
-164.671
-165.133
-165.573
-165.987
-166.374
-166.731
-167.056
-167.345
-167.597
-167.807
-167.974
-168.095
-168.166
-168.183
-168.145
-168.049
-167.892
-167.67
-167.382
-167.025
-166.597
-166.096
-165.518
-164.863
-164.127
-163.31
-162.411
-161.428
-160.362
-159.213
-157.981
-156.668
-155.276
-153.807
-152.263
-150.648
-148.965
-147.219
-145.414
-143.555
-141.649
-139.702
-137.723
-135.722
-133.709
-131.698
-129.699
-127.726
-125.792
-123.911
-122.098
-120.367
-118.73
-117.199
-115.788
-114.512
-113.385
-112.423
-111.637
-111.04
-110.641
-110.449
-110.473
-110.715
-111.178
-111.863
-112.772
-113.913
-115.297
-116.93
-118.817
-120.962
-123.354
-125.986
-128.841
-131.889
-135.101
-138.442
-141.871
-145.36
-148.871
-152.361
-155.795
-159.118
-162.271
-165.213
-167.875
-170.2
-172.173
-173.784
-175.052
-176.054
-176.793
-177.284
-177.692
-178.148
-178.82
-179.928
-181.464
-183.447
-186.148
-189.739
-194.108
-199.06
-204.022
-208.318
-211.85
-214.46
-215.646
-215.143
-213.004
-209.723
-206.654
-205.308
-206.358
-210.188
-217.214
-227.407
-240.198
-254.019
-265.921
-272.335
-270.141
-256.94
-230.581
-189.131
-131.674
-58.774
27.541
122.45
220.578
318.665
411.944
497.297
572.513
630.051
664.856
672.678
649.053
598.57
526.934
440.187
346.737
249.603
151.521
56.451
-32.715
-111.191
-175.268
-223.836
-256.943
-276.233
-283.792
-281.284
-270.994
-255.554
-237.427
-218.792
-200.835
-184.043
-168.936
-156.225
-146.39
-139.37
-134.641
-131.489
-129.501
-128.475
-128.01
-127.3
-125.501
-122.228
-117.526
-111.722
-105.22
-98.298
-91.345
-85.033
-79.953
-76.396
-74.43
-73.864
-74.383
-75.743
-77.625
-79.591
-81.325
-82.602
-83.249
-83.223
-82.495
-81.018
-78.81
-75.911
-72.34
-68.128
-63.304
-57.892
-51.957
-45.575
-38.812
-31.748
-24.446
-16.966
-9.388
-1.772
5.838
13.409
20.926
28.383
35.769
43.087
50.354
57.583
64.795
72.005
79.217
86.438
93.675
100.93
108.202
115.487
122.775
130.058
137.335
144.595
151.822
158.994
166.073
173.038
179.882
186.598
193.187
199.655
206.014
212.296
218.555
224.825
231.124
237.453
243.786
250.106
256.406
262.677
268.908
275.07
281.114
286.993
292.668
298.07
303.109
307.662
311.561
314.68
316.932
318.247
318.593
317.926
316.192
313.358
309.407
304.327
298.121
290.785
282.303
272.712
262.095
250.574
238.327
225.497
212.192
198.52
184.58
170.474
156.326
142.24
128.305
114.634
101.355
88.601
76.52
65.21
54.714
45.049
36.191
28.13
20.872
14.405
8.706
3.748
-0.503
-4.085
-7.028
-9.399
-11.303
-12.841
-14.126
-15.239
-16.223
-17.114
-17.933
-18.699
-19.429
-20.13
-20.794
-21.421
-22.015
-22.573
-23.097
-23.561
-23.916
-24.121
-24.143
-23.957
-23.563
-22.959
-22.146
-21.139
-19.96
-18.631
-17.186
-15.646
-14.03
-12.358
-10.653
-8.947
-7.276
-5.672
-4.159
-2.755
-1.476
-0.334
0.661
1.506
2.204
2.76
3.176
3.455
3.599
3.609
3.493
3.257
2.909
2.457
1.907
1.266
0.543
-0.256
-1.121
-2.048
-3.03
-4.06
-5.131
-6.234
-7.361
-8.504
-9.655
-10.807
-11.951
-13.081
-14.189
-15.272
-16.322
-17.335
-18.308
-19.234
-20.113
-20.939
-21.713
-22.431
-23.093
-23.699
-24.247
-24.74
-25.177
-25.559
-25.89
-26.17
-26.402
-26.59
-26.736
-26.844
-26.918
-26.963
-26.982
-26.98
-26.96
-26.928
-26.887
-26.841
-26.794
-26.751
-26.714
-26.686
-26.672
-26.673
-26.693
-26.734
-26.797
-26.885
-26.999
-27.14
-27.309
-27.507
-27.734
-27.989
-28.273
-28.585
-28.923
-29.286
-29.673
-30.08
-30.505
-30.945
-31.396
-31.856
-32.319
-32.783
-33.242
-33.694
-34.133
-34.556
-34.958
-35.335
-35.683
-35.997
-36.273
-36.507
-36.694
-36.831
-36.912
-36.935
-36.896
-36.79
-36.615
-36.367
-36.043
-35.639
-35.154
-34.585
-33.928
-33.184
-32.35
-31.427
-30.414
-29.312
-28.122
-26.845
-25.485
-24.044
-22.526
-20.933
-19.272
-17.546
-15.763
-13.928
-12.049
-10.133
-8.189
-6.227
-4.26
-2.298
-0.355
1.556
3.42
5.224
6.953
8.593
10.132
11.556
12.853
14.007
15.005
15.833
16.478
16.93
17.176
17.209
17.02
16.608
15.969
15.105
14.011
12.679
11.101
9.27
7.182
4.836
2.238
-0.603
-3.671
-6.937
-10.368
-13.929
-17.581
-21.294
-25.034
-28.761
-32.432
-35.987
-39.362
-42.499
-45.341
-47.839
-49.972
-51.729
-53.122
-54.194
-54.988
-55.563
-56.005
-56.403
-56.86
-57.499
-58.421
-59.768
-61.749
-64.501
-68.087
-72.446
-77.282
-82.245
-87.029
-91.214
-94.325
-96.05
-96.193
-94.94
-93.083
-91.461
-90.856
-92.033
-95.443
-101.227
-109.221
-118.417
-126.753
-131.833
-130.906
-121.281
-101.007
-68.122
-20.956
40.715
116.004
202.031
293.364
386.176
477.79
566.142
651.919
729.924
789.985
823.237
819.5
778.719
712.004
628.271
536.915
441.712
337.273
225.693
114.871
13.765
-64.137
-114.828
-144.804
-160.146
-168.858
-174.317
-172.94
-163.817
-147.498
-125.601
-102.215
-79.642
-58.46
-39.628
-24.055
-12.164
-4.092
0.486
2.312
1.942
-0.287
-3.481
-6.149
-7.311
-6.523
-3.709
0.685
6.231
12.647
19.272
25.122
29.572
32.331
33.341
32.899
31.287
28.708
25.536
22.228
19.086
16.302
13.991
12.162
10.867
10.193
10.16
10.751
11.955
13.749
16.118
19.049
22.498
26.402
30.701
35.348
40.309
45.563
51.071
56.781
62.639
68.581
74.566
80.565
86.557
92.534
98.498
104.457
110.425
116.417
122.444
128.508
134.602
140.709
146.81
152.892
158.951
164.993
171.025
177.04
183.027
188.965
194.828
200.602
206.279
211.844
217.293
222.63
227.869
233.047
238.215
243.401
248.614
253.841
259.057
264.245
269.394
274.492
279.515
284.424
289.169
293.707
297.991
301.953
305.498
308.493
310.791
312.286
312.904
312.599
311.343
309.099
305.827
301.505
296.13
289.711
282.259
273.767
264.235
253.703
242.263
230.055
217.234
203.918
190.205
176.172
161.901
147.494
133.051
118.655
104.383
90.323
76.587
63.318
50.659
38.7
27.485
17.014
7.277
-1.715
-9.948
-17.412
-24.115
-30.082
-35.337
-39.891
-43.769
-47.02
-49.729
-52.023
-54.021
-55.807
-57.436
-58.939
-60.346
-61.693
-63.01
-64.314
-65.607
-66.892
-68.175
-69.474
-70.796
-72.126
-73.43
-74.648
-75.731
-76.652
-77.396
-77.956
-78.332
-78.521
-78.532
-78.387
-78.111
-77.724
-77.242
-76.673
-76.031
-75.337
-74.621
-73.915
-73.247
-72.635
-72.092
-71.631
-71.258
-70.98
-70.794
-70.692
-70.666
-70.71
-70.821
-70.995
-71.23
-71.518
-71.852
-72.225
-72.631
-73.065
-73.523
-73.997
-74.485
-74.981
-75.484
-75.992
-76.502
-77.01
-77.515
-78.011
-78.496
-78.967
-79.42
-79.853
-80.263
-80.648
-81.007
-81.339
-81.643
-81.919
-82.167
-82.389
-82.584
-82.755
-82.904
-83.031
-83.14
-83.233
-83.312
-83.379
-83.436
-83.485
-83.528
-83.568
-83.605
-83.642
-83.681
-83.723
-83.771
-83.826
-83.889
-83.963
-84.049
-84.149
-84.264
-84.395
-84.545
-84.714
-84.904
-85.115
-85.349
-85.607
-85.889
-86.196
-86.527
-86.883
-87.263
-87.667
-88.093
-88.542
-89.012
-89.501
-90.01
-90.536
-91.079
-91.637
-92.209
-92.792
-93.385
-93.986
-94.592
-95.2
-95.809
-96.414
-97.012
-97.601
-98.177
-98.736
-99.274
-99.787
-100.27
-100.719
-101.129
-101.495
-101.811
-102.073
-102.275
-102.412
-102.48
-102.474
-102.389
-102.222
-101.966
-101.619
-101.176
-100.634
-99.988
-99.235
-98.372
-97.398
-96.31
-95.107
-93.79
-92.358
-90.812
-89.153
-87.385
-85.51
-83.532
-81.455
-79.286
-77.032
-74.699
-72.296
-69.833
-67.322
-64.774
-62.204
-59.627
-57.056
-54.51
-52.004
-49.555
-47.18
-44.895
-42.715
-40.655
-38.732
-36.962
-35.361
-33.947
-32.732
-31.732
-30.957
-30.419
-30.127
-30.083
-30.289
-30.747
-31.461
-32.441
-33.696
-35.231
-37.048
-39.144
-41.51
-44.132
-46.989
-50.044
-53.259
-56.596
-60.013
-63.481
-66.966
-70.425
-73.813
-77.064
-80.114
-82.908
-85.394
-87.532
-89.306
-90.712
-91.772
-92.547
-93.088
-93.458
-93.744
-94.018
-94.376
-94.941
-95.806
-97.113
-99.065
-101.776
-105.29
-109.516
-114.123
-118.732
-123.003
-126.464
-128.596
-129.052
-127.611
-124.52
-120.646
-116.893
-114.117
-113.152
-114.578
-118.742
-125.628
-134.216
-142.316
-147.3
-146.276
-136.558
-115.783
-81.436
-31.642
34.137
113.83
