-115.352
-123.016
-129.012
-133.187
-135.414
-135.55
-133.464
-129.083
-122.409
-113.518
-102.519
-89.52
-74.645
-58.067
-40.005
-20.741
-0.563
20.314
41.731
63.542
85.607
107.76
129.825
151.678
173.235
194.442
215.248
235.613
255.522
275.024
294.227
313.285
332.353
351.525
370.849
390.362
410.092
430.088
450.401
471.054
492.055
513.428
535.214
557.458
580.176
603.324
626.801
650.473
674.194
697.851
721.347
744.6
767.537
790.073
812.125
833.625
854.496
874.636
893.925
912.216
929.367
945.314
960.05
973.605
986.025
997.307
1007.377
1016.152
1023.578
1029.554
1033.945
1036.609
1037.342
1036.066
1032.923
1027.919
1020.794
1011.195
998.568
982.105
961.051
934.409
900.527
859.413
812.965
762.179
707.391
645.407
568.323
472.146
360.786
243.938
137.387
53.343
-12.251
-73.745
-153.607
-279.483
-464.415
-708.494
-1001.238
-1316.709
-1632.282
-1931.242
-2202.097
-2446.999
-2670.517
-2878.832
-3079.953
-3274.945
-3462.487
-3636.486
-3790.483
-3933.814
-4047.098
-4087.634
-4128.055
-4267.706
-4400.258
-4405.081
-4380.108
-4418.947
-4472.37
-4507.757
-4542.209
-4572.505
-4592.844
-4607.055
-4618.062
-4633.789
-4652.719
-4688.527
-4764.794
-4810.633
-4733.163
-4571.897
-4381.527
-4132.309
-3819.979
-3484.384
-3151.905
-2842.123
-2571.714
-2350.71
-2184.035
-2069.67
-2000.204
-1961.725
-1940.411
-1923.794
-1901.147
-1871.738
-1839.637
-1811.663
-1796.085
-1794.605
-1803.716
-1818.061
-1834.077
-1851.89
-1874.115
-1903.51
-1939.185
-1977.919
-2015.749
-2047.922
-2070.002
-2078.184
-2068.68
-2038.293
-1985.82
-1910.704
-1814.812
-1703.73
-1583.234
-1459.214
-1334.983
-1208.471
-1079.711
-955.418
-848.386
-779.097
-765.868
-813.961
-918.717
-1066.907
-1241.255
-1428.465
-1616.162
-1788.355
-1927.622
-2020.771
-2062.903
-2061.895
-2038.118
-2010.412
-1990.034
-1981.981
-1979.639
-1974.54
-1964.331
-1946.746
-1924.963
-1905.632
-1890.7
-1881.204
-1876.108
-1871.209
-1864.045
-1853.956
-1840.972
-1826.235
-1810.908
-1795.666
-1781.284
-1768.704
-1758.783
-1752.036
-1748.634
-1748.397
-1750.859
-1755.787
-1763.086
-1772.688
-1785.073
-1799.819
-1816.425
-1836.218
-1859.604
-1889.007
-1926.813
-1969.14
-2012.973
-2053.42
-2084.908
-2111.613
-2137.475
-2165.96
-2202.865
-2246.836
-2296.493
-2353.484
-2417.454
-2489.244
-2569.188
-2654.923
-2743.603
-2832.461
-2918.426
-2998.474
-3069.884
-3131.468
-3184.053
-3227.355
-3260.499
-3281.13
-3283.406
-3267.023
-3238.77
-3207.226
-3184.985
-3177.633
-3175.442
-3164.888
-3131.094
-3064.131
-2972.034
-2867.657
-2760.042
-2657.178
-2554.547
-2447.144
-2341.394
-2243.1
-2164.088
-2111.736
-2075.829
-2046.324
-2011.012
-1961.575
-1906.19
-1851.415
-1801.441
-1759.568
-1719.362
-1676.917
-1632.489
-1584.616
-1534.229
-1481.467
-1424.954
-1365.48
-1304.601
-1242.991
-1181.108
-1119.531
-1059.179
-1001.741
-948.627
-899.926
-854.749
-812.426
-772.788
-735.911
-701.907
-670.493
-641.371
-614.751
-591.227
-571.299
-555.165
-542.732
-533.69
-527.806
-524.916
-524.759
-527.025
-531.42
-537.677
-545.592
-555
-565.688
-577.413
-589.96
-603.128
-616.763
-630.78
-645.131
-659.858
-675.082
-690.938
-707.582
-725.14
-743.708
-763.412
-784.414
-806.888
-831.035
-857.063
-885.155
-915.517
-948.342
-983.761
-1021.841
-1062.517
-1105.614
-1150.92
-1198.194
-1247.215
-1297.758
-1349.479
-1401.953
-1454.727
-1507.253
-1559.064
-1609.708
-1658.517
-1705.117
-1749.283
-1790.692
-1829.654
-1865.909
-1898.927
-1929.035
-1956.147
-1982.072
-2006.097
-2028.738
-2060.411
-2076.753
-2037.028
-1996.568
-2024.864
-2061.763
-2046.965
-2019.36
-2008.617
-2005.674
-2008.245
-2021.788
-2047.789
-2078.703
-2108.975
-2134.434
-2149.375
-2157.132
-2160.704
-2159.472
-2153.411
-2135.889
-2103.09
-2059.349
-2011.533
-1973.401
-1952.43
-1940.849
-1926.083
-1887.923
-1810.177
-1693.923
-1546.174
-1380.351
-1213.823
-1058.204
-922.679
-813.322
-731.099
-670.539
-623.181
-582.082
-537.962
-487.831
-432.896
-371.394
-308.149
-246.329
-186.123
-130.929
-79.21
-29.492
17.58
62.987
105.624
144.407
179.83
212.195
242.312
271.2
299.192
326.465
353.227
379.514
405.35
430.732
455.558
479.718
503.198
526.061
548.401
570.331
591.933
613.262
634.385
655.378
676.317
697.259
718.228
739.219
760.235
781.31
802.48
823.768
845.17
866.643
888.113
909.512
930.771
951.794
972.484
992.731
1012.426
1031.506
1049.945
1067.732
1084.868
1101.344
1117.161
1132.343
1146.924
1160.945
1174.464
1187.536
1200.231
1212.658
1224.915
1237.09
1249.257
1261.441
1273.647
1285.866
1298.067
1310.201
1322.192
1333.955
1345.41
1356.494
1367.147
1377.295
1386.851
1395.704
1403.771
1411.018
1417.432
1423.026
1427.827
1431.874
1435.232
1438.01
1440.347
1442.37
1444.193
1445.904
1447.584
1449.332
1451.248
1453.421
1455.88
1458.572
1461.424
1464.354
1467.289
1470.169
1472.892
1475.282
1477.147
1478.316
1478.629
1478.013
1476.35
1473.401
1469.145
1463.762
1457.659
1451.636
1446.419
1442.43
1440.292
1440.748
1443.924
1449.67
1457.24
1464.844
1471.243
1475.865
1477.761
1476.392
1472.412
1466.999
1462.746
1463.884
1473.495
1494.226
1529.466
1581.416
1650.845
1736.286
1832.755
1934.131
2036.165
2137.303
2236.146
2328.136
2404.579
2451.585
2457.53
2420.085
2342.947
2238.2
2118.898
1989.767
1856.993
1727.059
1606.583
1508.912
1440.292
1396.898
1373.449
1360.975
1354.617
1356.78
1367.577
1384.857
1404.885
1422.435
1435.107
1443.089
1447.281
1448.887
1448.994
1449.115
1451.008
1455.658
1463.208
1473.059
1484.24
1495.991
1507.648
1518.348
1527.161
1533.468
1537.003
1537.814
1536.159
1532.26
1526.302
1518.529
1509.241
1498.741
1487.307
1475.178
1462.541
1449.578
1436.478
1423.422
1410.593
1398.15
1386.217
1374.903
1364.3
1354.464
1345.42
1337.169
1329.672
1322.869
1316.697
1311.077
1305.938
1301.216
1296.855
1292.798
1288.991
1285.378
1281.905
1278.52
1275.164
1271.798
1268.395
1264.945
1261.456
1257.944
1254.422
1250.913
1247.441
1244.027
1240.685
1237.427
1234.256
1231.18
1228.209
1225.355
1222.633
1220.051
1217.607
1215.294
1213.097
1211
1208.981
1207.016
1205.073
1203.123
1201.14
1199.097
1196.972
1194.741
1192.375
1189.848
1187.131
1184.199
1181.026
1177.589
1173.865
1169.832
1165.471
1160.767
1155.707
1150.277
1144.465
1138.262
1131.66
1124.652
1117.233
1109.404
1101.163
1092.512
1083.459
1074.01
1064.176
1053.969
1043.404
1032.498
1021.269
1009.736
997.922
985.85
973.544
961.028
948.331
935.477
922.496
909.415
896.261
883.064
869.852
856.651
843.488
830.389
817.38
804.485
791.725
779.124
766.699
754.471
742.456
730.67
719.126
707.836
696.81
686.056
675.581
665.389
655.483
645.865
636.534
627.489
618.727
610.242
602.029
594.081
586.39
578.947
571.741
564.762
557.999
551.439
545.07
538.88
532.854
526.982
521.248
515.642
510.149
504.757
499.454
494.229
489.069
483.963
478.902
473.875
468.873
463.886
458.908
453.929
448.943
443.943
438.923
433.878
428.803
423.694
418.547
413.359
408.126
402.848
397.523
392.148
386.725
381.251
375.729
370.157
364.538
358.872
353.161
347.408
341.615
335.784
329.92
324.024
318.101
312.155
306.191
300.212
294.225
288.233
282.244
276.264
270.298
264.354
258.439
252.559
246.722
240.935
235.207
229.544
223.955
218.448
213.03
207.71
202.496
197.394
192.412
187.557
182.835
178.251
173.811
169.518
165.377
161.39
157.559
153.884
150.366
147.003
143.792
140.73
137.811
135.03
132.377
129.842
127.413
125.077
122.82
120.626
118.478
116.36
114.255
112.147
110.017
107.849
105.624
103.322
100.924
98.406
95.75
92.935
89.944
86.76
83.374
79.776
75.957
71.908
67.613
63.055
58.223
53.104
47.689
41.978
35.974
29.699
23.188
16.477
9.604
2.607
-4.49
-11.652
-18.844
-26.025
-33.137
-40.118
-46.916
-53.474
-59.742
-65.686
-71.3
-76.629
-81.755
-86.766
-91.743
-96.735
-101.799
-107.039
-112.572
-118.529
-125.06
-132.261
-140.285
-149.374
-159.57
-170.717
-182.444
-194.048
-204.882
-214.58
-222.597
-228.266
-231.507
-232.613
-232.482
-232.793
-234.64
-238.338
-244.405
-253.357
-264.69
-277.097
-287.945
-293.258
-290.134
-276.764
-250.899
-210.215
-153.458
-80.52
5.201
97.156
190.539
280.972
366.767
449.391
525.23
588.251
628.822
632.134
591.347
507.339
386.621
244.375
93.951
-53.58
-184.897
-290.237
-363.407
-404.67
-423.747
-431.079
-433.51
-432.874
-425.729
-411.269
-392.826
-374.408
-360.376
-352.489
-349.688
-350.831
-354.627
-359.226
-362.781
-364.074
-362.58
-358.536
-352.762
-345.961
-338.67
-331.658
-325.8
-321.617
-319.311
-318.785
-319.66
-321.618
-324.439
-327.843
-331.53
-335.259
-338.803
-341.996
-344.749
-346.949
-348.5
-349.351
-349.459
-348.821
-347.476
-345.47
-342.864
-339.739
-336.164
-332.206
-327.935
-323.413
-318.708
-313.891
-309.023
-304.158
-299.336
-294.58
-289.91
-285.33
-280.836
-276.417
-272.054
-267.73
-263.431
-259.148
-254.874
-250.602
-246.326
-242.039
-237.737
-233.417
-229.079
-224.724
-220.356
-215.982
-211.61
-207.25
-202.915
-198.617
-194.37
-190.186
-186.076
-182.055
-178.136
-174.334
-170.664
-167.142
-163.785
-160.61
-157.635
-154.878
-152.356
-150.086
-148.086
-146.37
-144.954
-143.853
-143.079
-142.645
-142.561
-142.838
-143.484
-144.506
-145.909
-147.698
-149.875
-152.44
-155.392
-158.728
-162.443
-166.531
-170.983
-175.788
-180.935
-186.41
-192.196
-198.276
-204.632
-211.243
-218.087
-225.141
-232.38
-239.78
-247.316
-254.96
-262.687
-270.47
-278.283
-286.101
-293.896
-301.644
-309.321
-316.901
-324.363
-331.684
-338.842
-345.818
-352.592
-359.147
-365.467
-371.535
-377.338
-382.864
-388.103
-393.044
-397.68
-402.005
-406.015
-409.707
-413.081
-416.136
-418.876
-421.304
-423.425
-425.245
-426.773
-428.017
-428.986
-429.691
-430.143
-430.354
-430.338
-430.107
-429.675
-429.057
-428.266
-427.317
-426.225
-425.005
-423.67
-422.237
-420.719
-419.132
-417.488
-415.802
-414.088
-412.359
-410.626
-408.902
-407.196
-405.52
-403.883
-402.292
-400.755
-399.279
-397.868
-396.529
-395.263
-394.075
-392.966
-391.937
-390.987
-390.116
-389.322
-388.602
-387.951
-387.364
-386.835
-386.357
-385.924
-385.528
-385.161
-384.815
-384.482
-384.155
-383.826
-383.487
-383.126
-382.733
-382.299
-381.812
-381.262
-380.637
-379.927
-379.117
-378.2
-377.168
-376.012
-374.719
-373.28
-371.679
-369.907
-367.964
-365.848
-363.563
-361.116
-358.52
-355.792
-352.961
-350.053
-347.086
-344.078
-341.04
-337.989
-334.949
-331.941
-328.985
-326.094
-323.265
-320.493
-317.769
-315.07
-312.36
-309.593
-306.708
-303.666
-300.448
-297.045
-293.46
-289.698
-285.754
-281.639
-277.377
-273.005
-268.576
-264.163
-259.842
-255.716
-251.92
-248.585
-245.851
-243.823
-242.553
-242.07
-242.386
-243.498
-245.402
-248.078
-251.471
-255.514
-260.128
-265.196
-270.589
-276.146
-281.668
-286.967
-291.869
-296.256
-300.088
-303.371
-306.127
-308.382
-310.15
-311.469
-312.441
-313.18
-313.82
-314.536
-315.468
-316.844
-319.022
-322.146
-326.142
-330.705
-335.161
-338.858
-341.442
-342.375
-340.957
-337.118
-331.26
-324.381
-318.361
-314.595
-313.521
-315.744
-321.886
-331.282
-342.374
-352.345
-356.744
-351.989
-335.975
-306.34
-260.539
-197.534
-117.746
-23.562
79.158
183.89
286.987
384.544
473.024
551.964
615.332
654.262
663.242
635.062
570.331
478.946
367.46
242.314
109.274
-27.864
-156.776
-261.608
-332.468
-367.927
-378.185
-376.398
-370.598
-362.741
-349.561
-330.332
-308.243
-287.052
-270.722
-260.529
-255.257
-253.771
-254.658
-255.947
-255.92
-253.554
-248.485
-241.174
-232.508
-223.158
-213.694
-204.876
-197.478
-191.947
-188.444
-186.841
-186.787
-187.982
-190.171
-193.036
-196.231
-199.46
-202.474
-205.083
-207.16
-208.593
-209.287
-209.193
-208.281
-206.541
-203.983
-200.609
-196.446
-191.553
-186.007
-179.9
-173.347
-166.454
-159.319
-152.049
-144.727
-137.417
-130.162
-122.983
-115.888
-108.884
-101.979
-95.184
-88.503
-81.93
-75.456
-69.065
-62.733
-56.438
-50.162
-43.882
-37.584
-31.258
-24.905
-18.53
-12.148
-5.768
0.599
6.945
13.261
19.535
25.756
31.911
37.986
43.964
49.83
55.565
61.15
66.567
71.799
76.83
81.644
86.225
90.556
94.621
98.402
101.882
105.046
107.877
110.358
112.475
114.215
115.566
116.518
117.063
117.192
116.903
116.191
115.054
113.495
111.517
109.123
106.322
103.123
99.537
95.579
91.264
86.609
81.634
76.36
70.81
65.008
58.98
52.753
46.355
39.813
33.157
26.416
19.621
12.8
5.983
-0.799
-7.518
-14.145
-20.654
-27.019
-33.213
-39.214
-45
-50.55
-55.845
-60.869
-65.607
-70.046
-74.175
-77.985
-81.47
-84.625
-87.449
-89.941
-92.102
-93.936
-95.449
-96.647
-97.539
-98.134
-98.445
-98.483
-98.263
-97.799
-97.106
-96.201
-95.1
-93.819
-92.377
-90.791
-89.077
-87.253
-85.335
-83.341
-81.287
-79.189
-77.063
-74.922
-72.781
-70.652
-68.549
-66.48
-64.456
-62.485
-60.575
-58.731
-56.959
-55.262
-53.644
-52.107
-50.652
-49.28
-47.991
-46.783
-45.654
-44.603
-43.626
-42.72
-41.882
-41.107
-40.391
-39.731
-39.121
-38.556
-38.032
-37.542
-37.08
-36.64
-36.213
-35.793
-35.371
-34.942
-34.498
-34.032
-33.54
-33.016
-32.457
-31.859
-31.218
-30.531
-29.791
-28.996
-28.139
-27.216
-26.222
-25.15
-23.995
-22.752
-21.419
-19.991
-18.465
-16.833
-15.088
-13.224
-11.241
-9.142
-6.931
-4.617
-2.212
0.268
2.797
5.354
7.916
10.463
12.984
15.464
17.892
20.255
22.538
24.735
26.853
28.904
30.906
32.883
34.856
36.859
38.935
41.119
43.435
45.896
48.503
51.245
54.107
57.068
60.103
63.169
66.203
69.124
71.839
74.257
76.292
77.849
78.827
79.145
78.752
77.624
75.764
73.189
69.93
66.027
61.532
56.529
51.123
45.444
39.648
33.88
28.28
22.988
18.136
13.816
10.07
6.887
4.223
2.035
0.289
-1.075
-2.147
-3.068
-4.011
-5.153
-6.666
-8.754
-11.695
-15.643
-20.551
-26.144
-31.84
-37.021
-41.251
-44.066
-44.85
-43.326
-39.732
-34.789
-29.979
-26.762
-25.812
-27.637
-32.807
-41.095
-51.344
-61.428
-67.736
-66.466
-55.089
-31.301
7.367
62.269
133.717
220.775
318.936
421.583
523.65
619.498
706.569
787.478
860.595
921.391
960.867
962.761
917.747
827.001
698.802
548.519
391.025
236.278
95.293
-18.559
-97.071
-137.746
-146.721
-139.118
-125.641
-111.062
-96.08
-77.487
-56.207
-35.67
-18.593
-7.794
-3.328
-3.602
-7.219
-11.835
-15.139
-16.051
-14.138
-9.66
-3.512
3.588
11.055
18.07
23.795
27.773
29.863
30.226
29.266
27.316
24.631
21.496
18.198
14.99
12.081
9.628
7.736
6.489
5.954
6.173
7.163
8.909
11.371
14.488
18.185
22.387
27.023
32.028
37.344
42.898
48.619
54.432
60.271
66.084
71.843
77.521
83.104
88.589
93.98
99.292
104.547
109.76
114.94
120.092
125.222
130.335
135.44
140.543
145.648
150.757
155.868
160.979
166.084
171.177
176.247
181.281
186.263
191.181
196.022
200.772
205.421
209.953
214.354
218.611
222.709
226.633
230.366
233.892
237.193
240.253
243.055
245.582
247.818
249.748
251.356
252.628
253.55
254.109
254.294
254.094
253.5
252.504
251.1
249.283
247.053
244.408
241.351
237.885
234.017
229.755
225.109
220.091
214.714
208.994
202.947
196.591
189.946
183.033
175.874
168.493
160.912
153.158
145.257
137.233
129.115
120.928
112.7
104.457
96.227
88.035
79.908
71.87
63.947
56.162
48.537
41.094
33.851
26.826
20.037
13.497
7.218
1.212
-4.511
-9.945
-15.084
-19.923
-24.46
-28.694
-32.624
-36.254
-39.585
-42.622
-45.371
-47.838
-50.032
-51.96
-53.634
-55.063
-56.259
-57.234
-58.001
-58.575
-58.968
-59.195
-59.271
-59.21
-59.028
-58.738
-58.355
-57.893
-57.365
-56.784
-56.162
-55.511
-54.842
-54.166
-53.493
-52.832
-52.192
-51.581
-51.006
-50.475
-49.992
-49.565
-49.197
-48.892
-48.656
-48.489
-48.396
-48.378
-48.436
-48.57
-48.782
-49.071
-49.435
-49.874
-50.386
-50.969
-51.62
-52.337
-53.117
-53.957
-54.853
-55.801
-56.797
-57.837
-58.917
-60.03
-61.17
-62.331
-63.507
-64.691
-65.878
-67.06
-68.232
-69.388
-70.523
-71.632
-72.708
-73.744
-74.735
-75.672
-76.548
-77.353
-78.081
-78.72
-79.262
-79.699
-80.022
-80.225
-80.298
-80.232
-80.015
-79.637
-79.096
-78.391
-77.522
-76.497
-75.323
-74.015
-72.595
-71.081
-69.492
-67.845
-66.148
-64.411
-62.64
-60.846
-59.043
-57.234
-55.412
-53.564
-51.673
-49.718
-47.679
-45.524
-43.208
-40.695
-37.959
-34.986
-31.779
-28.354
-24.734
-20.952
-17.041
-13.058
-9.076
-5.182
-1.467
1.977
5.067
7.703
9.766
11.151
11.771
11.563
10.489
8.536
5.71
2.047
-2.39
-7.511
-13.2
-19.331
-25.764
-32.368
-39.016
-45.566
-51.85
-57.712
-63.018
-67.654
-71.536
-74.619
-76.901
-78.422
-79.282
-79.597
-79.479
-79.07
-78.538
-78.053
-77.799
-77.977
-78.758
-80.372
-83.111
-87.077
-92.18
-98.114
-104.259
-110.01
-114.95
-118.48
-119.858
-118.893
-115.848
-111.582
-107.766
-105.635
-105.604
-108.284
-114.303
-123.143
-133.464
-142.64
-146.444
-141.587
-126.152
-97.687
-53.76
6.679
83.988
175.177
273.437
373.421
470.693
563.482
654.065
741.094
819.312
877.327
898.108
872.47
799.465
688.771
558.152
417.446
273.667
133.448
3.865
-100.792
-170.122
-204.982
-215.198
-214.197
-211.174
-207.431
-198.89
-184.344
-166.482
-149.007
-136.108
-129.045
-126.431
-127.015
-129.336
-131.418
-131.599
-128.892
-122.956
-114.3
-103.887
-92.485
-80.743
-69.484
-59.556
-51.468
-45.448
-41.432
-39.112
-38.237
-38.617
-40
-42.125
-44.767
-47.701
-50.749
-53.781
-56.63
-59.148
-61.216
-62.698
-63.508
-63.594
-62.9
-61.423
-59.188
-56.221
-52.566
-48.282
-43.422
-38.065
-32.301
-26.202
-19.853
-13.323
-6.677
0.002
6.655
13.239
19.717
26.07
32.295
38.382
44.332
50.156
55.861
61.46
66.973
72.405
77.768
83.074
88.335
93.571
98.796
104.013
109.223
114.422
119.6
124.751
129.861
134.911
139.883
144.758
149.52
154.152
158.638
162.958
167.092
171.019
174.717
178.168
181.353
184.252
186.848
189.122
191.061
192.649
193.875
194.725
195.187
195.249
194.903
194.141
192.956
191.345
189.305
186.835
183.94
180.623
176.892
172.756
168.226
163.316
158.04
152.415
146.461
140.198
133.647
126.832
119.778
112.51
105.056
97.443
89.7
81.854
73.935
65.972
57.993
50.028
42.104
34.249
26.49
18.852
11.36
4.038
-3.093
-10.011
-16.699
-23.138
-29.313
-35.211
-40.82
-46.131
-51.136
-55.83
-60.207
-64.267
-68.008
-71.433
-74.544
-77.345
-79.843
-82.045
-83.96
-85.596
-86.966
-88.082
-88.955
-89.6
-90.031
-90.261
-90.307
-90.183
-89.904
-89.485
-88.942
-88.29
-87.543
-86.716
-85.823
-84.878
-83.894
-82.883
-81.857
-80.827
-79.804
-78.796
-77.812
-76.86
-75.947
-75.08
-74.264
-73.504
-72.805
-72.17
-71.602
-71.104
-70.675
-70.318
-70.032
-69.816
-69.67
-69.593
-69.582
-69.635
-69.752
-69.929
-70.164
-70.456
-70.8
-71.193
-71.633
-72.116
-72.638
-73.196
-73.786
-74.404
-75.046
-75.71
-76.391
-77.086
-77.789
-78.496
-79.204
-79.905
-80.594
-81.266
-81.913
-82.531
-83.116
-83.661
-84.163
-84.619
-85.026
-85.381
-85.681
-85.921
-86.095
-86.196
-86.219
-86.157
-86.003
-85.748
-85.385
-84.908
-84.316
-83.604
-82.77
-81.806
-80.703
-79.456
-78.067
-76.538
-74.875
-73.088
-71.187
-69.19
-67.128
-65.028
-62.917
-60.812
-58.716
-56.636
-54.581
-52.561
-50.59
-48.669
-46.78
-44.913
-43.062
-41.215
-39.365
-37.484
-35.518
-33.432
-31.201
-28.82
-26.316
-23.713
-21.031
-18.302
-15.565
-12.883
-10.349
-8.044
-6.031
-4.377
-3.14
-2.406
-2.281
-2.841
-4.125
-6.14
-8.852
-12.225
-16.225
-20.794
-25.847
-31.269
-36.912
-42.633
-48.313
-53.833
-59.081
-63.935
-68.275
-72.036
-75.205
-77.826
-79.957
-81.641
-82.946
-83.972
-84.872
-85.84
-87.08
-88.771
-91.121
-94.414
-98.805
-104.272
-110.563
-117.131
-123.396
-128.904
-133.144
-135.439
-135.433
-133.335
-129.891
-126.584
-124.883
-125.54
-129.162
-136.484
-147.461
-160.918
-174.548
-184.543
-186.882
-178.709
-157.27
-119.662
-64.19
9.392
99.381
201.609
311.066
423.026
531.71
630.442
712.846
772.896
806.383
811.33
787.62
737.213
663.655
570.953
460.432
332.454
191.032
45.698
-85.72
-184.54
-242.247
-261.958
-257.396
-243.887
-229.681
-216.318
-201.326
-183.813
-165.488
-149.05
-137.51
-131.4
-129.615
-130.831
-132.667
-132.856
-130.387
-124.855
-116.527
-106.351
-95.12
-83.475
-72.329
-62.614
-54.891
-49.45
-46.271
-45.034
-45.449
-47.269
-50.184
-53.874
-58.051
-62.435
-66.778
-70.871
-74.514
-77.557
-79.886
-81.414
-82.07
-81.79
-80.549
-78.366
-75.289
-71.386
-66.722
-61.36
-55.39
-48.932
-42.118
-35.093
-27.969
-20.816
-13.691
-6.64
0.296
7.078
13.688
20.133
26.421
32.56
38.553
44.399
50.111
55.72
61.26
66.764
72.256
77.745
83.236
88.734
94.236
99.741
105.236
110.702
116.124
121.489
126.785
132.004
137.13
142.145
147.03
151.766
156.335
160.721
164.906
168.871
172.599
176.075
179.284
182.214
184.85
187.175
189.175
190.834
192.138
193.074
193.63
193.792
193.552
192.901
191.835
190.348
188.439
186.108
183.357
180.19
176.614
172.636
168.267
163.517
158.402
152.937
147.139
141.027
134.622
127.945
121.02
113.871
106.524
99.004
91.34
83.558
75.687
67.755
59.791
51.823
43.88
35.989
28.179
20.476
12.906
5.494
-1.738
-8.768
-15.576
-22.143
-28.453
-34.491
-40.245
-45.703
-50.857
-55.699
-60.223
-64.427
-68.308
-71.866
-75.102
-78.021
-80.626
-82.924
-84.922
-86.629
-88.055
-89.211
-90.11
-90.763
-91.185
-91.39
-91.394
-91.21
-90.856
-90.348
-89.701
-88.932
-88.057
-87.09
-86.048
-84.945
-83.794
-82.61
-81.403
-80.187
-78.973
-77.77
-76.588
-75.435
-74.321
-73.251
-72.233
-71.271
-70.369
-69.533
-68.765
-68.067
-67.442
-66.892
-66.418
-66.02
-65.699
-65.455
-65.287
-65.193
-65.172
-65.222
-65.339
-65.522
-65.768
-66.072
-66.433
-66.847
-67.313
-67.827
-68.386
-68.988
-69.63
-70.309
-71.022
-71.766
-72.537
-73.334
-74.153
-74.991
-75.845
-76.713
-77.59
-78.473
-79.358
-80.239
-81.112
-81.969
-82.804
-83.609
-84.378
-85.106
-85.785
-86.411
-86.977
-87.48
-87.915
-88.278
-88.563
-88.763
-88.869
-88.873
-88.767
-88.543
-88.192
-87.706
-87.077
-86.301
-85.378
-84.303
-83.074
-81.684
-80.126
-78.395
-76.497
-74.435
-72.215
-69.85
-67.354
-64.755
-62.09
-59.39
-56.675
-53.961
-51.253
-48.559
-45.893
-43.262
-40.672
-38.127
-35.626
-33.175
-30.787
-28.461
-26.19
-23.946
-21.684
-19.377
-17.025
-14.638
-12.235
-9.846
-7.497
-5.238
-3.143
-1.277
0.302
1.546
2.431
2.917
2.953
2.491
1.472
-0.135
-2.321
-5.07
-8.362
-12.148
-16.371
-20.938
-25.702
-30.53
-35.308
-39.93
-44.321
-48.4
-52.096
-55.385
-58.268
-60.777
-62.955
-64.822
-66.413
-67.821
-69.165
-70.618
-72.409
-74.701
-77.708
-81.735
-86.864
-92.974
-99.719
-106.377
-112.263
-116.977
-119.933
-120.408
-118.342
-114.148
-108.924
-104.677
-102.817
-103.835
-108.408
-117.179
-129.55
-143.955
-157.307
-164.776
-162.646
-148.689
-120.204
-74.57
-10.567
72.055
169.642
274.478
380.758
483.744
581.595
676.528
765.494
840.975
891.4
900.621
860.952
774.912
651.486
505.273
348.873
191.138
43.257
-80.328
-169.183
-218.775
-234.769
-233.097
-225.338
-217.381
-209.929
-198.331
-182.642
-165.851
-150.499
-139.998
-134.905
-133.507
-134.463
-135.644
-134.737
-130.85
-123.765
-113.713
-101.622
-88.391
-74.694
-61.461
-49.739
-40.119
-32.886
-28.057
-25.32
-24.402
-25.106
-27.134
-30.15
-33.871
-38.009
-42.315
-46.601
-50.639
-54.214
-57.166
-59.359
-60.695
-61.106
-60.553
-59.032
-56.579
-53.246
-49.095
-44.2
-38.642
-32.521
-25.951
-19.052
-11.944
-4.737
2.483
9.651
16.712
23.627
30.367
36.922
43.294
49.496
55.535
61.421
67.162
72.775
78.282
83.706
89.071
94.402
99.716
105.021
110.321
115.618
120.905
126.175
131.414
136.602
141.725
146.769
151.721
156.565
161.285
165.863
170.282
174.521
178.561
182.384
185.971
189.303
192.364
195.136
197.605
199.755
201.573
203.043
204.153
204.888
205.235
205.185
204.728
203.855
202.559
200.837
198.686
196.106
193.098
189.667
185.818
181.559
176.898
171.846
166.417
160.626
154.489
148.023
141.25
134.191
126.868
119.307
111.534
103.574
95.457
87.209
78.86
70.438
61.973
53.493
45.028
36.605
28.253
19.998
11.866
3.883
-3.929
-11.546
-18.948
-26.116
-33.032
-39.682
-46.051
-52.126
-57.897
-63.355
-68.494
-73.306
-77.79
-81.943
-85.764
-89.257
-92.424
-95.271
-97.805
-100.034
-101.968
-103.617
-104.994
-106.111
-106.982
-107.622
-108.046
-108.269
-108.308
-108.179
-107.898
-107.482
-106.947
-106.31
-105.585
-104.787
-103.932
-103.034
-102.105
-101.159
-100.209
-99.266
-98.342
-97.446
-96.59
-95.781
-95.028
-94.337
-93.715
-93.165
-92.692
-92.299
-91.986
-91.757
-91.61
-91.544
-91.56
-91.655
-91.828
-92.074
-92.391
-92.774
-93.219
-93.721
-94.276
-94.879
-95.523
-96.205
-96.92
-97.662
-98.425
-99.204
-99.993
-100.786
-101.575
-102.353
-103.112
-103.843
-104.541
-105.197
-105.804
-106.358
-106.851
-107.281
-107.642
-107.932
-108.147
-108.283
-108.334
-108.296
-108.164
-107.932
-107.597
-107.153
-106.595
-105.918
-105.121
-104.202
-103.157
-101.984
-100.674
-99.223
-97.635
-95.914
-94.067
-92.108
-90.047
-87.905
-85.71
-83.492
-81.275
-79.083
-76.929
-74.821
-72.774
-70.8
-68.913
-67.119
-65.405
-63.757
-62.164
-60.609
-59.077
-57.546
-55.971
-54.315
-52.553
-50.669
-48.668
-46.567
-44.379
-42.124
-39.84
-37.576
-35.408
-33.424
-31.696
-30.29
-29.269
-28.688
-28.62
-29.117
-30.209
-31.908
-34.205
-37.07
-40.47
-44.357
-48.656
-53.262
-58.054
-62.887
-67.634
-72.197
-76.487
-80.448
-84.057
-87.316
-90.249
-92.898
-95.289
-97.464
-99.52
-101.56
-103.718
-106.168
-109.032
-112.506
-116.878
-122.224
-128.434
-135.195
-141.822
-147.654
-152.297
-155.125
-155.391
-152.979
-148.081
-141.524
-135.168
-130.346
-127.731
-128.349
-132.921
-140.987
-151.419
-161.507
-166.805
-163.985
-150.226
-121.991
-76.586
-12.597
68.932
163.078
263.502
366.038
469.749
574.269
675.64
764.083
823.736
841.089
811.998
741.079
642.18
527.432
401.493
267.359
127.896
-6.265
-118.497
-196.965
-239.426
-255.65
-258.631
-256.714
-251.885
-240.345
-221.058
-197.438
-173.527
-153.696
-139.713
-130.572
-125.335
-122.878
-121.292
-118.644
-113.748
-106.142
-96.201
-84.849
-72.759
-60.444
-48.724
-38.559
-30.585
-25.094
-21.994
-20.884
-21.425
-23.359
-26.365
-30.069
-34.104
-38.115
-41.835
-45.101
-47.79
-49.79
-51.004
-51.333
-50.698
-49.075
-46.484
-42.974
-38.614
-33.47
-27.623
-21.179
-14.282
-7.088
0.27
7.689
15.106
22.474
29.75
36.889
43.859
50.65
57.268
63.725
70.029
76.182
82.194
88.09
93.91
99.697
105.482
111.284
117.11
122.964
128.849
134.763
140.699
146.64
152.57
158.474
164.339
170.156
175.91
181.585
187.157
192.605
197.907
203.045
207.999
212.748
217.272
221.551
225.569
229.31
232.758
235.894
238.701
241.161
243.257
244.974
246.297
247.21
247.701
247.759
247.376
246.544
245.259
243.518
241.319
238.664
235.557
232.003
228.009
223.587
218.748
213.505
207.876
201.879
195.533
188.86
181.884
174.629
167.121
159.387
151.455
143.352
135.109
126.753
118.314
109.823
101.308
92.8
84.326
75.916
67.597
59.397
51.339
43.449
35.749
28.26
21.002
13.993
7.248
0.783
-5.39
-11.262
-16.822
-22.065
-26.985
-31.58
-35.849
-39.793
-43.413
-46.715
-49.703
-52.384
-54.767
-56.861
-58.675
-60.223
-61.516
-62.568
-63.392
-64.003
-64.416
-64.648
-64.712
-64.626
-64.405
-64.066
-63.623
-63.093
-62.492
-61.833
-61.131
-60.401
-59.655
-58.906
-58.165
-57.445
-56.754
-56.103
-55.498
-54.948
-54.458
-54.035
-53.682
-53.403
-53.201
-53.077
-53.031
-53.065
-53.177
-53.364
-53.626
-53.957
-54.356
-54.816
-55.334
-55.902
-56.516
-57.167
-57.848
-58.551
-59.27
-59.994
-60.715
-61.425
-62.114
-62.773
-63.394
-63.967
-64.483
-64.934
-65.311
-65.606
-65.812
-65.921
-65.928
-65.827
-65.613
-65.282
-64.831
-64.258
-63.56
-62.737
-61.79
-60.721
-59.532
-58.228
-56.812
-55.291
-53.675
-51.972
-50.194
-48.352
-46.461
-44.536
-42.591
-40.644
-38.708
-36.801
-34.937
-33.133
-31.406
-29.773
-28.254
-26.866
-25.629
-24.559
-23.673
-22.985
-22.505
-22.239
-22.197
-22.385
-22.818
-23.509
-24.47
-25.711
-27.24
-29.058
-31.161
-33.528
-36.127
-38.923
-41.878
-44.954
-48.122
-51.351
-54.604
-57.842
-61.012
-64.055
-66.918
-69.547
-71.892
-73.922
-75.631
-77.058
-78.278
-79.376
-80.433
-81.508
-82.67
-84.019
-85.664
-87.73
-90.357
-93.644
-97.744
-102.889
-109.128
-116.326
-124.154
-131.984
-139.213
-145.482
-150.271
-152.902
-153.234
-151.527
-148.543
-145.798
-144.373
-144.525
-146.708
-151.482
-158.369
-166.178
-172.643
-174.058
-167.496
-151.368
-123.83
-82.741
-27.068
43.04
125.749
215.977
307.817
398.244
484.236
563.083
634.928
694.078
731.458
741.338
716.441
657.006
572.46
468.437
350.253
223.097
90.548
-34.866
-136.929
-205.83
-240.476
-251.597
-252.763
-251.717
-249.626
-242.143
-227.504
-208.505
-188.949
-172.976
-162.142
-155.487
-152.08
-150.836
-150.112
-148.249
-144.21
-137.596
-128.737
-118.444
-107.31
-95.764
-84.483
-74.267
-65.615
-58.781
-53.751
-50.242
-48.058
-47.051
-46.994
-47.644
-48.769
-50.152
-51.638
-53.125
-54.52
-55.749
-56.756
-57.481
-57.887
-57.926
-57.535
-56.666
-55.263
-53.296
-50.766
-47.684
-44.085
-40.021
-35.546
-30.717
-25.579
-20.157
-14.469
-8.535
-2.367
4.008
10.546
17.202
23.911
30.623
37.306
43.933
50.494
56.985
63.407
69.764
76.065
82.31
88.495
94.609
100.638
106.575
112.417
118.166
123.833
129.421
134.926
140.342
145.655
150.85
155.909
160.808
165.518
170.013
174.272
178.273
182
185.432
188.55
191.335
193.766
195.823
197.491
198.752
199.593
200
199.964
199.477
198.535
197.136
195.277
192.959
190.184
186.955
183.279
179.166
174.625
169.669
164.313
158.576
152.477
146.038
139.282
132.233
124.918
117.365
109.602
101.657
93.562
85.346
77.04
68.674
60.28
51.887
43.527
35.229
27.023
18.937
10.998
3.233
-4.334
-11.68
-18.782
-25.623
-32.183
-38.447
-44.402
-50.035
-55.337
-60.3
-64.919
-69.191
-73.115
-76.691
-79.922
-82.812
-85.367
-87.596
-89.506
-91.109
-92.414
-93.435
-94.186
-94.679
-94.932
-94.958
-94.776
-94.4
-93.85
-93.142
-92.294
-91.323
-90.246
-89.081
-87.844
-86.551
-85.218
-83.857
-82.484
-81.111
-79.75
-78.412
-77.108
-75.846
-74.635
-73.482
-72.393
-71.374
-70.429
-69.562
-68.775
-68.07
-67.448
-66.911
-66.457
-66.087
-65.797
-65.587
-65.454
-65.393
-65.4
-65.47
-65.597
-65.776
-65.999
-66.257
-66.545
-66.854
-67.179
-67.512
-67.846
-68.173
-68.488
-68.783
-69.051
-69.285
-69.474
-69.608
-69.68
-69.681
-69.607
-69.449
-69.201
-68.856
-68.412
-67.865
-67.214
-66.452
-65.571
-64.56
-63.416
-62.146
-60.76
-59.266
-57.672
-55.986
-54.223
-52.402
-50.539
-48.64
-46.699
-44.709
-42.674
-40.609
-38.54
-36.488
-34.467
-32.476
-30.51
-28.576
-26.681
-24.828
-23.006
-21.195
-19.396
-17.638
-15.979
-14.468
-13.137
-12.001
-11.064
-10.342
-9.867
-9.674
-9.797
-10.251
-11.054
-12.228
-13.804
-15.808
-18.23
-21.017
-24.08
-27.345
-30.754
-34.26
-37.822
-41.366
-44.81
-48.08
-51.109
-53.847
-56.249
-58.283
-59.938
-61.238
-62.248
-63.057
-63.759
-64.452
-65.25
-66.275
-67.665
-69.588
-72.167
-75.575
-80.058
-85.665
-92.257
-99.492
-106.711
-113.311
-118.943
-123.066
-124.987
-124.594
-122.192
-118.693
-115.819
-114.707
-115.625
-119.028
-125.397
-134.193
-144.128
-152.59
-155.422
-149.555
-133.331
-104.636
-61.351
-2.416
72.628
160.678
254.874
350.262
442.863
531.66
619.518
703.904
778.082
830.829
845.707
814.608
737.97
623.179
486.419
341.293
199.282
73.025
-29.404
-102.507
-146.081
-168.755
-179.188
-182.878
-182.206
-174.582
-159.512
-140.659
-121.852
-107.08
-98.364
-94.962
-95.537
-98.723
-102.651
-105.33
-105.678
-103.281
-98.283
-91.46
-83.548
-75.093
-66.909
-59.926
-54.635
-51.231
-49.636
-49.479
-50.474
-52.422
-55.041
-58.033
-61.147
-64.145
-66.856
-69.176
-70.975
-72.144
-72.613
-72.331
-71.29
-69.52
-67.062
-63.974
-60.329
-56.192
-51.631
-46.712
-41.5
-36.066
-30.482
-24.815
-19.126
-13.46
-7.847
-2.307
3.149
8.526
13.831
19.08
24.292
29.477
34.644
39.799
44.946
50.09
55.237
60.393
65.559
70.736
75.921
81.11
86.298
91.474
96.626
101.743
106.808
111.808
116.73
121.56
126.286
130.891
135.36
139.678
143.828
147.793
151.555
155.095
158.393
161.432
164.193
166.66
168.813
170.639
172.12
173.243
173.995
174.363
174.336
173.905
173.063
171.802
170.117
168.008
165.472
162.512
159.131
155.335
151.132
146.532
141.547
136.191
130.48
124.431
118.065
111.403
104.467
97.282
89.873
82.269
74.495
66.582
58.558
50.453
42.295
34.116
25.944
17.807
9.735
1.755
-6.105
-13.821
-21.368
-28.721
-35.859
-42.761
-49.409
-55.784
-61.872
-67.659
-73.134
-78.286
-83.109
-87.595
-91.742
-95.548
-99.012
-102.136
-104.923
-107.38
-109.513
-111.329
-112.839
-114.053
-114.984
-115.645
-116.05
-116.213
-116.151
-115.879
-115.413
-114.772
-113.971
-113.027
-111.957
-110.778
-109.507
-108.159
-106.752
-105.301
-103.821
-102.327
-100.833
-99.353
-97.898
-96.481
-95.11
-93.797
-92.55
-91.375
-90.28
-89.271
-88.351
-87.525
-86.796
-86.167
-85.638
-85.209
-84.88
-84.649
-84.514
-84.473
-84.522
-84.657
-84.874
-85.168
-85.535
-85.967
-86.461
-87.008
-87.601
-88.232
-88.892
-89.573
-90.263
-90.953
-91.634
-92.296
-92.931
-93.53
-94.086
-94.592
-95.041
-95.427
-95.741
-95.976
-96.121
-96.17
-96.114
-95.944
-95.653
-95.233
-94.677
-93.984
-93.151
-92.175
-91.052
-89.773
-88.334
-86.739
-84.992
-83.102
-81.079
-78.934
-76.689
-74.374
-72.019
-69.656
-67.304
-64.971
-62.666
-60.405
-58.199
-56.066
-54.01
-52.016
-50.074
-48.181
-46.33
-44.518
-42.719
-40.887
-38.986
-36.991
-34.897
-32.728
-30.503
-28.232
-25.943
-23.672
-21.479
-19.463
-17.702
-16.252
-15.173
-14.516
-14.35
-14.766
-15.821
-17.536
-19.907
-22.899
-26.473
-30.603
-35.225
-40.251
-45.558
-50.978
-56.361
-61.595
-66.565
-71.167
-75.315
-78.929
-81.979
-84.506
-86.552
-88.156
-89.393
-90.34
-91.127
-91.937
-92.955
-94.364
-96.392
-99.312
-103.262
-108.198
-113.825
-119.563
-124.842
-129.246
-132.301
-133.366
-132.117
-128.761
-124.069
-119.568
-116.692
-116.058
-118.129
-123.534
-132.165
-142.91
-153.56
-160.303
-159.253
-147.96
-123.966
-84.42
-27.592
47.061
137.134
236.541
339.379
441.92
543.237
643.195
737.98
818.463
870.019
880.124
845.019
769.239
666.607
549.503
422.579
289.254
152.494
22.144
-85.565
-160.011
-200.005
-214.831
-217.13
-214.512
-208.378
-195.759
-176.297
-153.635
-131.926
-115.034
-104.276
-98.566
-96.84
-97.87
-99.655
-100.207
-98.342
-93.617
-86.46
-77.826
-68.402
-58.728
-49.61
-41.917
-36.193
-32.696
-31.315
-31.677
-33.483
-36.483
-40.393
-44.921
-49.77
-54.666
-59.372
-63.682
-67.438
-70.523
-72.84
-74.321
-74.914
-74.567
-73.278
-71.084
-68.032
-64.187
-59.609
-54.348
-48.496
-42.166
-35.484
-28.59
-21.581
-14.512
-7.439
-0.401
6.566
13.422
20.156
26.778
33.289
39.689
45.977
52.141
58.191
64.149
70.038
75.886
81.708
87.503
93.273
99.016
104.724
110.39
115.997
121.522
126.946
132.255
137.436
142.477
147.364
152.077
156.597
160.906
164.988
168.826
172.405
175.707
178.72
181.43
183.827
185.902
187.644
189.042
190.088
190.77
191.082
191.015
190.562
189.72
188.483
186.85
184.82
182.397
179.583
176.383
172.805
168.856
164.547
159.889
154.895
149.58
143.959
138.05
131.872
125.443
118.784
111.917
104.864
97.648
90.293
82.821
75.259
67.629
59.957
52.267
44.585
36.934
29.339
21.822
14.409
7.12
-0.023
-7
-13.791
-20.379
-26.747
-32.88
-38.764
-44.387
-49.74
-54.811
-59.594
-64.083
-68.273
-72.161
-75.746
-79.028
-82.007
-84.687
-87.071
-89.165
-90.974
-92.506
-93.77
-94.774
-95.528
-96.045
-96.335
-96.411
-96.286
-95.974
-95.489
-94.845
-94.056
-93.138
-92.104
-90.969
-89.747
-88.454
-87.101
-85.704
-84.274
-82.825
-81.368
-79.916
-78.479
-77.067
-75.689
-74.354
-73.069
-71.841
-70.677
-69.581
-68.558
-67.611
-66.744
-65.96
-65.259
-64.644
-64.114
-63.669
-63.31
-63.033
-62.839
-62.723
-62.685
-62.72
-62.827
-63.001
-63.238
-63.534
-63.885
-64.285
-64.728
-65.208
-65.718
-66.25
-66.798
-67.353
-67.91
-68.46
-68.999
-69.52
-70.02
-70.493
-70.934
-71.338
-71.699
-72.009
-72.263
-72.453
-72.572
-72.611
-72.563
-72.421
-72.179
-71.833
-71.375
-70.796
-70.086
-69.237
-68.246
-67.113
-65.842
-64.438
-62.913
-61.282
-59.571
-57.801
-55.994
-54.166
-52.329
-50.493
-48.665
-46.856
-45.078
-43.336
-41.622
-39.923
-38.217
-36.482
-34.692
-32.813
-30.796
-28.599
-26.197
-23.572
-20.732
-17.691
-14.477
-11.122
-7.66
-4.146
-0.65
2.739
5.92
8.795
11.273
13.25
14.614
15.265
15.126
14.155
12.348
9.732
6.349
2.257
-2.482
-7.777
-13.515
-19.561
-25.76
-31.967
-38.051
-43.875
-49.297
-54.2
-58.495
-62.14
-65.171
-67.676
-69.756
-71.528
-73.098
-74.549
-76.01
-77.656
-79.672
-82.259
-85.589
-89.758
-94.925
-101.285
-108.792
-117.207
-126.023
-134.364
-141.507
-146.946
-149.996
-150.118
-147.338
-141.975
-134.996
-128.045
-122.116
-117.816
-116.016
-116.772
-119.084
-121.31
-120.453
-112.884
-96.23
-68.096
-25.579
32.704
106.842
194.398
289.589
386.915
482.925
576.437
666.96
751.078
820.593
862.46
865.645
826.744
750.098
648.69
533.874
409.598
278.607
143.686
14.7
-92.065
-165.768
-205.371
-220.451
-223.666
-222.644
-218.568
-207.985
-190.272
-168.818
-147.61
-130.582
-119.11
-112.243
-109.071
-108.464
-108.551
-107.44
-103.986
-97.763
-89.155
-79.026
-67.999
-56.564
-45.486
-35.632
-27.555
-21.525
-17.485
-15.115
-14.168
-14.444
-15.687
-17.626
-20.004
-22.595
-25.227
-27.786
-30.17
-32.294
-34.083
-35.467
-36.378
-36.741
-36.496
-35.595
-34.017
-31.774
-28.886
-25.384
-21.324
-16.772
-11.797
-6.472
-0.844
5.054
11.195
17.552
24.088
30.753
37.493
44.252
50.983
57.654
64.243
70.734
77.124
83.416
89.617
95.742
101.794
107.772
113.669
119.474
125.183
130.797
136.322
141.766
147.137
152.431
157.644
162.769
167.791
172.696
177.462
182.064
186.479
190.686
194.666
198.404
201.882
205.08
207.98
210.563
212.81
214.704
216.229
217.37
218.115
218.451
218.371
217.869
216.94
215.58
213.787
211.56
208.899
205.808
202.292
198.358
194.013
189.269
184.138
178.637
172.782
166.591
160.086
153.287
146.218
138.904
131.37
123.642
115.747
107.714
99.57
91.344
83.064
74.758
66.455
58.182
49.968
41.837
33.816
25.93
18.201
10.652
3.302
-3.829
-10.723
-17.366
-23.742
-29.84
-35.648
-41.159
-46.366
-51.262
-55.846
-60.114
-64.068
-67.709
-71.039
-74.064
-76.788
-79.22
-81.367
-83.239
-84.845
-86.198
-87.308
-88.19
-88.855
-89.317
-89.592
-89.692
-89.632
-89.427
-89.092
-88.639
-88.084
-87.438
-86.717
-85.932
-85.094
-84.217
-83.311
-82.385
-81.45
-80.515
-79.588
-78.676
-77.788
-76.928
-76.103
-75.318
-74.578
-73.887
-73.249
-72.666
-72.143
-71.68
-71.28
-70.944
-70.673
-70.467
-70.325
-70.247
-70.232
-70.279
-70.386
-70.551
-70.772
-71.048
-71.377
-71.756
-72.183
-72.656
-73.172
-73.728
-74.321
-74.949
-75.608
-76.296
-77.008
-77.742
-78.495
-79.262
-80.038
-80.82
-81.6
-82.374
-83.135
-83.874
-84.585
-85.262
-85.897
-86.484
-87.018
-87.493
-87.903
-88.246
-88.517
-88.711
-88.823
-88.845
-88.77
-88.592
-88.306
-87.903
-87.377
-86.721
-85.931
-85.007
-83.947
-82.749
-81.408
-79.918
-78.276
-76.488
-74.561
-72.504
-70.328
-68.051
-65.697
-63.303
-60.904
-58.528
-56.191
-53.9
-51.666
-49.5
-47.413
-45.418
-43.512
-41.688
-39.943
-38.282
-36.706
-35.21
-33.767
-32.328
-30.855
-29.33
-27.756
-26.157
-24.55
-22.966
-21.442
-20.03
-18.807
-17.847
-17.198
-16.892
-16.948
-17.383
-18.235
-19.564
-21.409
-23.779
-26.661
-30.013
-33.795
-37.95
-42.386
-46.99
-51.618
-56.135
-60.452
-64.513
-68.295
-71.824
-75.119
-78.183
-81.045
-83.719
-86.244
-88.724
-91.26
-93.965
-97.013
-100.527
-104.714
-109.897
-116.135
-123.273
-130.959
-138.451
-145.069
-150.448
-153.954
-154.793
-152.872
-148.427
-142.31
-136.436
-132.113
-129.888
-130.74
-135.399
-143.303
-153.175
-162.334
-166.368
-161.813
-145.89
-115.088
-66.339
0.756
83.9
179.139
280.522
386.408
499.328
616.446
731.164
829.356
889.586
899.887
858.664
775.304
669.394
554.661
436.731
314.429
185.754
57.284
-58.948
-147.912
-203.391
-231.481
-240.357
-240.279
-235.961
-225.099
-208.967
-190.201
-171.531
-157.225
-148.645
-144.795
-144.908
-147.592
-150.703
-152.252
-150.936
-146.205
-138.376
-128.345
-116.853
-104.5
-92.158
-80.785
-70.985
-63.05
-56.977
-52.51
-49.453
-47.703
-47.059
-47.268
-48.124
-49.416
-50.976
-52.701
-54.448
-56.087
-57.533
-58.708
-59.559
-60.065
-60.18
-59.842
-59.011
-57.627
-55.656
-53.1
-49.969
-46.298
-42.139
-37.547
-32.583
-27.297
-21.722
-15.887
-9.81
-3.502
3.009
9.681
16.467
23.301
30.131
36.925
43.656
50.312
56.886
63.379
69.795
76.145
82.43
88.647
94.787
100.838
106.793
112.652
118.418
124.104
129.712
135.242
140.687
146.036
151.275
156.386
161.347
166.129
170.708
175.059
179.164
183.003
186.557
189.807
192.73
195.307
197.517
199.344
200.77
201.78
202.362
202.504
202.2
201.444
200.233
198.566
196.443
193.864
190.833
187.357
183.443
179.102
174.344
169.185
163.642
157.733
151.479
144.902
138.027
130.879
123.485
115.874
108.074
100.116
92.029
83.845
75.594
67.307
59.017
50.752
42.543
34.419
26.409
18.541
10.84
3.33
-3.965
-11.023
-17.827
-24.357
-30.599
-36.539
-42.165
-47.467
-52.437
-57.069
-61.359
-65.307
-68.911
-72.173
-75.098
-77.691
-79.959
-81.911
-83.556
-84.906
-85.973
-86.77
-87.311
-87.612
-87.687
-87.552
-87.224
-86.719
-86.053
-85.244
-84.306
-83.257
-82.11
-80.882
-79.585
-78.234
-76.841
-75.418
-73.977
-72.528
-71.08
-69.643
-68.224
-66.831
-65.47
-64.147
-62.865
-61.629
-60.443
-59.308
-58.226
-57.199
-56.227
-55.311
-54.451
-53.645
-52.895
-52.197
-51.552
-50.958
-50.413
-49.917
-49.467
-49.063
-48.705
-48.39
-48.118
-47.89
-47.704
-47.561
-47.46
-47.401
-47.384
-47.41
-47.478
-47.588
-47.742
-47.938
-48.176
-48.457
-48.778
-49.141
-49.542
-49.981
-50.456
-50.964
-51.503
-52.07
-52.661
-53.272
-53.899
-54.537
-55.181
-55.825
-56.462
-57.086
-57.688
-58.261
-58.798
-59.289
-59.725
-60.099
-60.4
-60.62
-60.749
-60.779
-60.701
-60.506
-60.185
-59.732
-59.14
-58.403
-57.515
-56.473
-55.273
-53.914
-52.394
-50.715
-48.878
-46.885
-44.74
-42.45
-40.02
-37.458
-34.773
-31.976
-29.083
-26.108
-23.068
-19.981
-16.867
-13.747
-10.643
-7.575
-4.564
-1.628
1.212
3.936
6.522
8.948
11.193
13.237
15.062
16.652
17.991
19.07
19.882
20.424
20.693
20.681
20.371
19.745
18.791
17.499
15.865
13.896
11.601
9
6.127
3.022
-0.272
-3.712
-7.265
-10.891
-14.547
-18.171
-21.68
-24.986
-28.016
-30.697
-32.977
-34.843
-36.285
-37.333
-38.047
-38.478
-38.71
-38.858
-39.038
-39.398
-40.089
-41.248
-43.092
-45.93
-49.928
-55.067
-61.103
-67.472
-73.633
-79.222
-83.771
-86.635
-87.473
-86.463
-84.378
-82.799
-83.269
-86.496
-92.922
-103.06
-116.742
-132.782
-148.868
-161.056
-165.013
-157.822
-137.139
-100.385
-45.758
27.355
117.957
221.085
329.289
437.035
540.037
637.115
729.404
813.306
880.039
916.737
910.982
858.123
764.03
641.557
502.681
357.202
213.134
79.457
-31.158
-109.157
-154.155
-175.033
-183.753
-188.75
-191.572
-188.103
-176.939
-160.995
-144.227
-131.133
-123.444
-119.991
-119.677
-121.323
-123.129
-123.286
-120.608
-114.594
-105.605
-94.634
-82.53
-69.932
-57.713
-46.863
-38.033
-31.593
-27.576
-25.684
-25.652
-27.266
-30.227
-34.206
-38.919
-44.062
-49.364
-54.604
-59.515
-63.887
-67.575
-70.447
-72.41
-73.387
-73.321
-72.21
-70.098
-67.041
-63.109
-58.37
-52.903
-46.825
-40.272
-33.389
-26.327
-19.19
-12.052
-4.98
1.977
8.771
15.368
21.762
27.963
33.978
39.81
45.461
50.934
56.252
61.445
66.545
71.587
76.59
81.564
86.518
91.455
96.373
101.27
106.131
110.938
115.677
120.338
124.91
129.384
133.747
137.981
142.071
146
149.751
153.31
156.66
159.784
162.669
165.301
167.667
169.755
171.554
173.049
174.229
175.079
175.589
175.746
175.541
174.965
174.009
172.667
170.936
168.812
166.296
163.389
160.092
156.41
152.348
147.916
143.121
137.975
132.49
126.682
120.565
114.158
107.48
100.552
93.396
86.034
78.492
70.794
62.965
55.031
47.02
38.958
30.872
22.788
14.733
6.733
-1.188
-9.003
-16.691
-24.228
-31.594
-38.767
-45.73
-52.465
-58.956
-65.188
-71.149
-76.828
-82.213
-87.298
-92.075
-96.539
-100.688
-104.518
-108.031
-111.228
-114.111
-116.686
-118.957
-120.933
-122.622
-124.032
-125.175
-126.062
-126.705
-127.115
-127.307
-127.294
-127.089
-126.706
-126.159
-125.463
-124.631
-123.677
-122.617
-121.462
-120.227
-118.926
-117.57
-116.173
-114.747
-113.303
-111.853
-110.408
-108.977
-107.571
-106.198
-104.867
-103.585
-102.36
-101.196
-100.099
-99.074
-98.123
-97.251
-96.459
-95.75
-95.126
-94.587
-94.136
-93.773
-93.498
-93.312
-93.213
-93.201
-93.275
-93.433
-93.673
-93.993
-94.39
-94.862
-95.406
-96.016
-96.69
-97.421
-98.205
-99.036
-99.907
-100.81
-101.739
-102.686
-103.645
-104.609
-105.572
-106.527
-107.471
-108.399
-109.306
-110.186
-111.033
-111.836
-112.589
-113.282
-113.907
-114.452
-114.909
-115.268
-115.524
-115.673
-115.711
-115.631
-115.426
-115.085
-114.601
-113.977
-113.212
-112.308
-111.274
-110.12
-108.868
-107.551
-106.192
-104.805
-103.398
-101.97
-100.523
-99.065
-97.596
-96.118
-94.634
-93.141
-91.641
-90.147
-88.651
-87.137
-85.575
-83.908
-82.11
-80.18
-78.125
-75.973
-73.757
-71.512
-69.293
-67.169
-65.196
-63.424
-61.889
-60.618
-59.665
-59.104
-59.014
-59.501
-60.632
-62.431
-64.912
-68.061
-71.827
-76.144
-80.913
-86.001
-91.304
-96.731
-102.194
-107.613
-112.871
-117.835
-122.381
-126.381
-129.749
-132.453
-134.476
-135.848
-136.645
-136.942
-136.881
-136.652
-136.439
-136.439
-136.84
-137.796
-139.55
-142.439
-146.624
-152.057
-158.445
-165.172
-171.67
-177.564
-182.354
-185.345
-186.215
-185.206
-183.182
-181.797
-182.537
-186.029
-192.751
-203.281
-217.35
-233.569
-249.343
-260.537
-263.03
-254.021
-230.841
-190.733
-132.182
-55.174
38.214
143.422
255.228
368.799
478.337
577.193
658.726
716.753
747.583
749.602
722.907
669.829
592.319
493.193
375.762
241.493
97.416
-44.241
-170.734
-267.216
-328.919
-362.679
-376.223
-379.588
-376.891
-365.172
-345.083
-318.757
-290.032
-264.559
-244.405
-229.322
-219.008
-212.234
-207.57
-203.645
-198.551
-191.167
-181.595
-170.354
-158.175
-145.775
-133.741
-122.845
-114.014
-107.75
-104.1
-102.848
-103.54
-105.784
-109.297
-113.706
-118.589
-123.566
-128.284
-132.499
-136.083
-138.913
-140.868
-141.831
-141.705
-140.454
-138.103
-134.712
-130.358
-125.125
-119.095
-112.386
-105.136
-97.495
-89.624
-81.644
-73.635
-65.664
-57.784
-50.047
-42.499
-35.154
-28.002
-21.026
-14.21
-7.542
-1.013
5.407
11.756
18.073
24.401
30.766
37.181
43.658
50.201
56.813
63.491
70.224
76.992
83.779
90.57
97.353
104.116
110.842
117.51
124.1
130.589
136.958
143.187
149.255
155.142
160.828
166.295
171.526
176.504
181.21
185.628
189.737
193.52
196.959
200.037
202.738
205.047
206.952
208.441
209.505
210.139
210.337
210.096
209.417
208.299
206.747
204.766
202.362
199.546
196.327
192.721
188.741
184.404
179.73
174.737
169.448
163.885
158.073
152.035
145.797
139.386
132.828
126.152
119.384
112.554
105.69
98.82
91.971
85.172
78.448
71.825
65.326
58.974
52.791
46.795
41.006
35.439
30.11
25.032
20.217
15.675
11.415
7.444
3.765
0.383
-2.701
-5.486
-7.975
-10.168
-12.071
-13.687
-15.022
-16.085
-16.882
-17.424
-17.722
-17.787
-17.632
-17.271
-16.718
-15.988
-15.096
-14.057
-12.885
-11.596
-10.204
-8.724
-7.169
-5.552
-3.888
-2.189
-0.467
1.266
2.999
4.723
6.428
8.106
9.75
11.353
12.909
14.412
15.857
17.241
18.56
19.81
20.99
22.099
23.139
24.111
25.018
25.864
26.655
27.398
28.099
28.765
29.403
30.021
30.624
31.222
31.819
32.421
33.035
33.669
34.331
35.03
35.776
36.576
37.439
38.375
39.392
40.497
41.694
42.985
44.373
45.863
47.461
49.173
51.005
52.95
55.006
57.166
59.417
61.741
64.113
66.492
68.849
71.162
73.416
75.606
77.726
79.767
81.723
83.589
85.364
87.049
88.643
90.132
91.518
92.814
94.049
95.28
96.542
97.844
99.183
100.537
101.877
103.168
104.36
105.382
106.17
106.67
106.847
106.694
106.203
105.353
104.104
102.397
100.194
97.493
94.311
90.683
86.661
82.322
77.767
73.137
68.559
64.13
59.911
55.912
52.1
48.445
44.924
41.531
38.27
35.115
31.984
28.783
25.399
21.677
17.502
12.671
6.875
0.047
-7.683
-15.954
-24.016
-31.189
-37.09
-41.138
-42.664
-41.636
-38.304
-33.556
-29.312
-26.891
-26.913
-30.25
-37.319
-47.373
-59.121
-69.822
-74.996
-71.337
-56.19
-26.24
20.514
84.584
165.681
259.703
360.415
464.277
566.118
661.529
747.253
814.044
854.634
864.448
840.535
788.097
713.575
620.401
509.341
380.281
237.704
94.363
-28.557
-113.708
-156.151
-161.779
-147.228
-129.618
-116.08
-108.938
-106.909
-104.769
-101.559
-97.369
-91.256
-86.286
-83.879
-83.536
-85.127
-85.925
-83.975
-79.364
-72.32
-63.81
-54.838
-45.813
-37.314
-30.119
-24.658
-21.075
-19.318
-19.127
-20.23
-22.415
-25.396
-28.833
-32.461
-36.055
-39.423
-42.427
-44.912
-46.749
-47.87
-48.238
-47.84
-46.682
-44.763
-42.092
-38.728
-34.755
-30.277
-25.394
-20.188
-14.741
-9.139
-3.466
2.2
7.811
13.35
18.808
24.18
29.46
34.637
39.706
44.678
49.573
54.412
59.215
63.993
68.755
73.517
78.295
83.097
87.923
92.763
97.604
102.434
107.246
112.032
116.781
121.477
126.105
130.65
135.096
139.428
143.629
147.679
151.559
155.249
158.731
161.99
165.008
167.768
170.25
172.439
174.317
175.87
177.081
177.937
178.422
178.527
178.24
177.554
176.461
174.958
173.041
170.708
167.96
164.8
161.232
157.263
152.901
148.156
143.041
137.571
131.76
125.628
119.194
112.478
105.503
98.294
90.874
83.27
75.508
67.615
59.62
51.549
43.432
35.295
27.166
19.073
11.041
3.097
-4.736
-12.435
-19.976
-27.339
-34.504
-41.454
-48.172
-54.642
-60.851
-66.787
-72.44
-77.801
-82.863
-87.622
-92.073
-96.216
-100.05
-103.576
-106.797
-109.719
-112.346
-114.686
-116.747
-118.539
-120.073
-121.36
-122.412
-123.242
-123.864
-124.292
-124.539
-124.62
-124.55
-124.341
-124.009
-123.567
-123.031
-122.413
-121.728
-120.989
-120.208
-119.4
-118.575
-117.745
-116.92
-116.112
-115.328
-114.578
-113.869
-113.207
-112.598
-112.047
-111.557
-111.131
-110.767
-110.467
-110.228
-110.05
-109.928
-109.859
-109.84
-109.867
-109.937
-110.045
-110.188
-110.358
-110.548
-110.752
-110.96
-111.163
-111.351
-111.513
-111.637
-111.713
-111.733
-111.686
-111.563
-111.351
-111.036
-110.607
-110.06
-109.393
-108.605
-107.701
-106.688
-105.58
-104.398
-103.16
-101.883
-100.583
-99.271
-97.956
-96.65
-95.363
-94.111
-92.9
-91.723
-90.569
-89.418
-88.249
-87.038
-85.752
-84.349
-82.794
-81.069
-79.164
-77.085
-74.844
-72.463
-69.965
-67.377
-64.74
-62.117
-59.585
-57.241
-55.182
-53.498
-52.287
-51.655
-51.687
-52.44
-53.946
-56.197
-59.173
-62.84
-67.152
-72.06
-77.487
-83.331
-89.469
-95.736
-101.98
-108.06
-113.834
-119.159
-123.935
-128.102
-131.647
-134.623
-137.075
-139.033
-140.566
-141.759
-142.749
-143.716
-144.84
-146.299
-148.315
-151.179
-155.046
-159.88
-165.39
-170.97
-176.022
-180.119
-182.793
-183.406
-181.665
-177.841
-172.777
-168.133
-165.484
-165.533
-168.82
-176.035
-187.06
-200.689
-214.532
-224.483
-226.351
-217.475
-195.188
-156.421
-99.362
-23.502
68.518
170.157
275.175
379.652
482.552
583.63
678.667
758.374
808.132
815.279
776.713
696.753
588.893
467.634
338.684
207.714
79.868
-39.309
-137.051
-206.547
-250.511
-273.527
-284.031
-286.863
-280.087
-263.907
-240.901
-215.293
-192.514
-175.143
-163.214
-155.955
-152.273
-151.13
-150.863
-149.432
-145.648
-139.235
-130.671
-120.855
-110.453
-100.004
-90.329
-82.365
-76.687
-73.488
-72.602
-73.608
-76.167
-80.017
-84.836
-90.255
-95.912
-101.462
-106.654
-111.334
-115.363
-118.625
-121.009
-122.398
-122.733
-122.008
-120.251
-117.526
-113.9
-109.438
-104.229
-98.387
-92.048
-85.366
-78.467
-71.441
-64.361
-57.278
-50.242
-43.307
-36.499
-29.821
-23.269
-16.83
-10.498
-4.273
1.856
7.917
13.941
19.965
26.013
32.096
38.218
44.381
50.584
56.822
63.083
69.345
75.59
81.8
87.959
94.055
100.071
105.984
111.772
117.413
122.884
128.167
133.24
138.08
142.669
146.985
151.013
154.734
158.133
161.191
163.891
166.216
168.151
169.68
170.79
171.47
171.708
171.496
170.828
169.701
168.113
166.064
163.557
160.597
157.191
153.348
149.08
144.4
139.323
133.867
128.051
121.897
115.428
108.669
101.646
94.387
86.922
79.28
71.492
63.589
55.603
47.566
39.509
31.465
23.465
15.539
7.717
0.029
-7.499
-14.838
-21.966
-28.858
-35.495
-41.855
-47.924
-53.685
-59.126
-64.236
-69.005
-73.428
-77.5
-81.219
-84.584
-87.597
-90.262
-92.585
-94.574
-96.238
-97.589
-98.639
-99.402
-99.893
-100.128
-100.124
-99.9
-99.472
-98.862
-98.086
-97.166
-96.12
-94.967
-93.727
-92.417
-91.055
-89.66
-88.246
-86.829
-85.424
-84.044
-82.702
-81.408
-80.173
-79.005
-77.911
-76.898
-75.969
-75.128
-74.377
-73.717
-73.146
-72.663
-72.266
-71.95
-71.711
-71.541
-71.436
-71.387
-71.386
-71.424
-71.49
-71.577
-71.673
-71.768
-71.853
-71.916
-71.948
-71.939
-71.877
-71.755
-71.561
-71.289
-70.928
-70.472
-69.914
-69.248
-68.471
-67.576
-66.563
-65.428
-64.171
-62.793
-61.294
-59.676
-57.945
-56.103
-54.158
-52.117
-49.989
-47.782
-45.51
-43.186
-40.824
-38.44
-36.051
-33.674
-31.327
-29.029
-26.795
-24.643
-22.588
-20.646
-18.835
-17.171
-15.671
-14.353
-13.234
-12.33
-11.655
-11.218
-11.024
-11.077
-11.38
-11.936
-12.759
-13.859
-15.24
-16.912
-18.881
-21.142
-23.687
-26.483
-29.482
-32.638
-35.9
-39.223
-42.572
-45.906
-49.178
-52.344
-55.341
-58.107
-60.596
-62.748
-64.511
-65.859
-66.795
-67.389
-67.761
-68.032
-68.309
-68.67
-69.191
-70.003
-71.248
-73.073
-75.645
-79.05
-83.41
-88.991
-95.829
-103.734
-112.286
-120.606
-127.836
-133.471
-136.818
-137.096
-134.277
-128.693
-121.346
-114.41
-109.473
-107.318
-109.063
-115.285
-125.045
-136.709
-147.069
-151.037
-144.762
-125.084
-88.146
-31.409
45.732
141.405
250.012
364.299
478.923
591.394
699.342
797.369
876.142
922.341
925.17
881.933
796.827
679.791
541.207
389.965
235.743
90.597
-31.655
-121.39
-177.103
-206.653
-221.342
-228.588
-230.201
-223.202
-206.249
-182.329
-156.75
-134.957
-119.335
-109.622
-104.741
-103.247
-103.778
-104.743
-104.19
-101.026
-95.194
-87.156
-77.77
-67.782
-57.783
-48.567
-41.029
-35.698
-32.705
-31.904
-32.915
-35.404
-39.116
-43.743
-48.957
-54.444
-59.916
-65.131
-69.893
-74.049
-77.475
-80.067
-81.734
-82.401
-82.03
-80.634
-78.259
-74.971
-70.838
-65.932
-60.328
-54.139
-47.492
-40.516
-33.345
-26.071
-18.757
-11.465
-4.244
2.858
9.807
16.595
23.23
29.717
36.057
42.248
48.292
54.208
60.018
65.746
71.419
77.048
82.638
88.191
93.708
99.182
104.608
109.97
115.246
120.422
125.484
130.419
135.217
139.862
144.337
148.624
152.707
156.571
160.201
163.582
166.698
169.539
172.092
174.346
176.293
177.922
179.224
180.189
180.807
181.069
180.968
180.498
179.652
178.426
176.817
174.826
172.453
169.701
166.574
163.078
159.22
155.01
150.459
145.578
140.383
134.888
129.111
123.07
116.784
110.275
103.565
96.675
89.631
82.455
75.173
67.81
60.391
52.942
45.488
38.056
30.67
23.355
16.136
9.036
2.078
-4.716
-11.325
-17.732
-23.916
-29.862
-35.555
-40.982
-46.13
-50.99
-55.553
-59.813
-63.766
-67.408
-70.737
-73.755
-76.464
-78.866
-80.968
-82.775
-84.295
-85.538
-86.513
-87.232
-87.707
-87.952
-87.981
-87.808
-87.448
-86.918
-86.232
-85.408
-84.462
-83.41
-82.267
-81.051
-79.777
-78.46
-77.115
-75.756
-74.397
-73.051
-71.729
-70.442
-69.199
-68.01
-66.881
-65.818
-64.828
-63.914
-63.079
-62.324
-61.651
-61.058
-60.546
-60.11
-59.749
-59.458
-59.231
-59.064
-58.949
-58.88
-58.848
-58.845
-58.863
-58.893
-58.926
-58.951
-58.96
-58.942
-58.888
-58.788
-58.632
-58.411
-58.116
-57.739
-57.272
-56.708
-56.041
-55.266
-54.378
-53.375
-52.255
-51.015
-49.657
-48.18
-46.587
-44.883
-43.07
-41.154
-39.142
-37.043
-34.867
-32.626
-30.334
-28.004
-25.653
-23.297
-20.953
-18.638
-16.369
-14.16
-12.028
-9.989
-8.059
-6.258
-4.605
-3.117
-1.812
-0.705
0.188
0.857
1.296
1.5
1.466
1.187
0.65
-0.16
-1.256
-2.648
-4.342
-6.335
-8.617
-11.166
-13.945
-16.914
-20.032
-23.257
-26.558
-29.899
-33.241
-36.538
-39.725
-42.733
-45.499
-47.965
-50.076
-51.809
-53.178
-54.224
-55.036
-55.697
-56.27
-56.849
-57.533
-58.453
-59.767
-61.62
-64.136
-67.503
-71.978
-77.687
-84.58
-92.34
-100.339
-107.947
-114.697
-120.086
-123.457
-124.458
-123.261
-120.632
-118.136
-117.289
-118.801
-123.14
-130.85
-141.776
-154.755
-167.486
-176.023
-176.305
-165.723
-141.765
-101.76
-44.05
32.177
124.516
226.531
332.235
436.86
539.068
641.139
740.337
829.582
895.973
921.826
899.668
830.597
724.701
599.666
465.192
327.335
191.495
63.158
-45.876
-125.881
-175.42
-200.821
-212.391
-217.654
-217.873
-210.176
-193.844
-171.67
-148.411
-128.882
-114.802
-105.565
-100.431
-98.303
-97.894
-97.873
-96.486
-92.708
-86.664
-78.877
-70.059
-60.878
-51.865
-43.692
-37.185
-32.805
-30.595
-30.376
-31.756
-34.37
-37.952
-42.163
-46.627
-51.034
-55.13
-58.722
-61.703
-63.984
-65.478
-66.126
-65.875
-64.684
-62.558
-59.533
-55.667
-51.046
-45.765
-39.93
-33.674
-27.129
-20.406
-13.605
-6.798
-0.035
6.645
13.212
19.645
25.922
32.032
37.976
43.756
49.382
54.871
60.241
65.526
70.76
75.965
81.158
86.349
91.536
96.72
101.893
107.042
112.157
117.226
122.241
127.192
132.071
136.864
141.559
146.141
150.591
154.892
159.026
162.972
166.713
170.232
173.512
176.539
179.299
181.776
183.955
185.823
187.364
188.563
189.402
189.856
189.909
189.554
188.788
187.616
186.041
184.065
181.697
178.952
175.841
172.368
168.53
164.309
159.701
154.712
149.357
143.668
137.664
131.35
124.734
117.82
110.611
103.121
95.346
87.265
78.886
70.236
61.369
52.373
43.316
34.246
25.205
16.219
7.328
-1.413
-9.961
-18.274
-26.305
-34.012
-41.329
-48.166
-54.473
-60.232
-65.458
-70.211
-74.529
-78.43
-81.933
-85.052
-87.807
-90.229
-92.336
-94.133
-95.641
-96.888
-97.921
-98.815
-99.614
-100.336
-100.976
-101.503
-101.897
-102.161
-102.29
-102.279
-102.13
-101.84
-101.423
-100.907
-100.31
-99.64
-98.895
-98.058
-97.13
-96.122
-95.054
-93.955
-92.851
-91.756
-90.691
-89.675
-88.726
-87.852
-87.059
-86.339
-85.691
-85.116
-84.62
-84.207
-83.883
-83.644
-83.489
-83.414
-83.415
-83.487
-83.625
-83.821
-84.068
-84.361
-84.699
-85.079
-85.498
-85.953
-86.438
-86.948
-87.478
-88.021
-88.567
-89.108
-89.636
-90.143
-90.623
-91.069
-91.476
-91.84
-92.156
-92.42
-92.627
-92.772
-92.847
-92.846
-92.761
-92.585
-92.313
-91.94
-91.461
-90.873
-90.176
-89.37
-88.454
-87.428
-86.287
-85.024
-83.638
-82.13
-80.505
-78.774
-76.953
-75.064
-73.133
-71.191
-69.259
-67.356
-65.491
-63.666
-61.88
-60.131
-58.423
-56.769
-55.181
-53.667
-52.235
-50.887
-49.614
-48.399
-47.215
-46.028
-44.817
-43.576
-42.313
-41.059
-39.856
-38.765
-37.842
-37.128
-36.659
-36.464
-36.573
-37.005
-37.787
-38.94
-40.483
-42.448
-44.844
-47.671
-50.906
-54.494
-58.355
-62.374
-66.43
-70.41
-74.219
-77.776
-81.004
-83.864
-86.34
-88.447
-90.236
-91.732
-92.95
-93.933
-94.758
-95.536
-96.426
-97.624
-99.289
-101.639
-104.965
-109.358
-114.731
-120.774
-126.857
-132.371
-136.921
-139.958
-140.776
-139.257
-135.756
-131.206
-127.364
-125.545
-126.188
-129.908
-137.398
-148.133
-160.688
-172.364
-178.811
-176.496
-163.339
-136.971
-94.813
-35.677
40.277
130.839
230.261
332.177
433.022
528.774
615.904
694.011
756.613
795.505
806.113
780.004
717.431
626.046
508.745
374.286
231.344
88.006
-37.232
-130.504
-186.301
-207.648
-210.182
-206.11
-201.215
-196.077
-185.577
-169.947
-152.619
-136.517
-125.633
-120.681
-119.85
-122.038
-125.297
-127.043
-126.18
-122.252
-115.143
-105.747
-94.996
-83.476
-72.086
-61.875
-53.372
-46.844
-42.347
-39.57
-38.301
-38.415
-39.65
-41.731
-44.425
-47.496
-50.755
-54.054
-57.18
-59.917
-62.112
-63.654
-64.498
-64.633
-64.047
-62.73
-60.677
-57.904
-54.45
-50.359
-45.681
-40.475
-34.815
-28.799
-22.548
-16.179
-9.776
-3.395
2.936
9.203
15.388
21.478
27.465
33.349
39.132
44.814
50.393
55.863
61.231
66.515
71.741
76.942
82.132
87.32
92.504
97.679
102.841
107.98
113.081
118.127
123.1
127.987
132.776
137.458
142.017
146.438
150.7
154.782
158.665
162.331
165.762
168.939
171.846
174.468
176.791
178.805
180.497
181.855
182.868
183.525
183.816
183.733
183.269
182.418
181.177
179.543
177.519
175.106
172.31
169.137
165.594
161.693
157.445
152.862
147.96
142.756
137.266
131.51
125.508
119.283
112.857
106.254
99.5
92.618
85.635
78.577
71.47
64.338
57.208
50.106
43.056
36.082
29.208
22.457
15.849
9.405
3.144
-2.918
-8.765
-14.384
-19.762
-24.889
-29.756
-34.356
-38.684
-42.734
-46.506
-49.997
-53.209
-56.144
-58.805
-61.197
-63.326
-65.2
-66.826
-68.215
-69.376
-70.322
-71.062
-71.612
-71.983
-72.191
-72.249
-72.172
-71.975
-71.67
-71.272
-70.795
-70.252
-69.654
-69.014
-68.342
-67.651
-66.95
-66.25
-65.558
-64.883
-64.233
-63.613
-63.029
-62.487
-61.99
-61.542
-61.144
-60.8
-60.511
-60.277
-60.1
-59.976
-59.905
-59.883
-59.907
-59.97
-60.066
-60.189
-60.331
-60.486
-60.649
-60.811
-60.968
-61.113
-61.242
-61.351
-61.435
-61.485
-61.494
-61.455
-61.36
-61.202
-60.974
-60.668
-60.276
-59.794
-59.223
-58.56
-57.802
-56.944
-55.978
-54.9
-53.714
-52.425
-51.04
-49.57
-48.029
-46.442
-44.845
-43.272
-41.748
-40.289
-38.898
-37.582
-36.35
-35.207
-34.163
-33.209
-32.333
-31.532
-30.805
-30.154
-29.565
-29.006
-28.42
-27.763
-27.007
-26.153
-25.217
-24.214
-23.177
-22.146
-21.177
-20.354
-19.747
-19.406
-19.36
-19.621
-20.204
-21.153
-22.53
-24.377
-26.716
-29.533
-32.793
-36.465
-40.473
-44.724
-49.101
-53.45
-57.646
-61.61
-65.301
-68.733
-71.951
-74.973
-77.8
-80.435
-82.891
-85.257
-87.641
-90.145
-92.931
-96.106
-99.857
-104.513
-110.16
-116.673
-123.726
-130.595
-136.595
-141.389
-144.43
-145.046
-143.257
-139.33
-134.094
-129.442
-126.657
-126.244
-129.013
-135.356
-144.419
-154.886
-164.143
-167.805
-162.518
-145.769
-114.608
-66.959
-2.325
78.588
173.099
275.037
378.609
479.749
572.03
651.598
715.594
755.944
769.233
753.497
705.372
630.847
533.675
415.437
284.443
147.924
19.431
-83.398
-151.956
-186.486
-197.374
-198.086
-196.37
-193.528
-185.817
-171.869
-154.44
-137.189
-124.124
-116.666
-113.646
-113.929
-116.184
-118.574
-119.471
-117.871
-113.431
-106.575
-98.168
-88.896
-79.299
-70.109
-62.112
-55.781
-51.313
-48.619
-47.398
-47.432
-48.569
-50.576
-53.185
-56.133
-59.142
-62.005
-64.583
-66.723
-68.306
-69.25
-69.488
-69.005
-67.815
-65.935
-63.385
-60.181
-56.336
-51.896
-46.927
-41.516
-35.781
-29.824
-23.735
-17.605
-11.495
-5.447
0.507
6.362
12.126
17.803
23.395
28.894
34.289
39.58
44.775
49.887
54.941
59.96
64.962
69.969
74.995
80.042
85.102
90.165
95.211
100.223
105.188
110.089
114.909
119.645
124.286
128.825
133.253
137.55
141.693
145.662
149.433
152.998
156.349
159.469
162.344
164.97
167.335
169.441
171.289
172.848
174.09
174.991
175.522
175.675
175.447
174.825
173.801
172.365
170.501
168.214
165.509
162.374
158.807
154.797
150.331
145.444
140.173
134.543
128.592
122.34
115.805
109.021
102.022
94.836
87.497
80.029
72.453
64.815
57.154
49.515
41.946
34.461
27.07
19.798
12.659
5.679
-1.116
-7.712
-14.099
-20.253
-26.154
-31.784
-37.122
-42.165
-46.91
-51.355
-55.504
-59.346
-62.872
-66.082
-68.976
-71.556
-73.828
-75.793
-77.455
-78.827
-79.924
-80.76
-81.352
-81.712
-81.854
-81.795
-81.549
-81.135
-80.573
-79.879
-79.072
-78.171
-77.194
-76.16
-75.088
-73.994
-72.891
-71.796
-70.72
-69.676
-68.676
-67.729
-66.843
-66.025
-65.281
-64.616
-64.033
-63.534
-63.12
-62.79
-62.542
-62.375
-62.283
-62.263
-62.309
-62.415
-62.572
-62.774
-63.012
-63.277
-63.559
-63.849
-64.136
-64.409
-64.658
-64.872
-65.038
-65.147
-65.187
-65.148
-65.021
-64.797
-64.468
-64.027
-63.469
-62.789
-61.983
-61.048
-59.984
-58.79
-57.468
-56.019
-54.448
-52.76
-50.959
-49.054
-47.054
-44.969
-42.813
-40.598
-38.34
-36.054
-33.759
-31.471
-29.209
-26.988
-24.825
-22.737
-20.741
-18.855
-17.099
-15.491
-14.05
-12.793
-11.736
-10.894
-10.276
-9.889
-9.737
-9.822
-10.153
-10.745
-11.61
-12.76
-14.205
-15.95
-17.99
-20.316
-22.903
-25.715
-28.712
-31.85
-35.093
-38.408
-41.759
-45.11
-48.41
-51.588
-54.578
-57.315
-59.742
-61.809
-63.493
-64.805
-65.786
-66.521
-67.095
-67.574
-68.039
-68.594
-69.351
-70.443
-72.026
-74.222
-77.213
-81.252
-86.407
-92.577
-99.456
-106.443
-112.971
-118.672
-122.983
-125.218
-125.245
-123.324
-120.303
-117.783
-116.838
-117.836
-121.353
-127.96
-137.222
-147.875
-157.32
-161.606
-157.76
-143.826
-117.437
-76.205
-18.751
55.178
142.432
236.76
333.335
427.592
517.574
604.694
685.835
755.235
803.36
815.335
783.491
709.169
599.474
467.811
326.343
182.878
47.797
-64.78
-144.467
-186.295
-195.245
-187.27
-174.766
-163.754
-154.945
-143.603
-129.08
-113.997
-100.89
-92.936
-90.477
-91.968
-96.105
-100.781
-103.911
-104.526
-102.224
-97.186
-90.23
-82.124
-73.467
-65.05
-57.715
-51.939
-47.914
-45.589
-44.652
-44.817
-45.879
-47.575
-49.627
-51.826
-53.977
-55.923
-57.563
-58.765
-59.414
-59.449
-58.82
-57.513
-55.549
-52.953
-49.769
-46.068
-41.912
-37.362
-32.477
-27.312
-21.929
-16.398
-10.786
-5.157
0.441
5.98
11.438
16.803
22.076
27.262
32.375
37.436
42.457
47.444
52.404
57.339
62.256
67.159
72.054
76.943
81.828
86.704
91.568
96.413
101.23
106.005
110.726
115.375
119.94
124.405
128.759
132.986
137.075
141.01
144.778
148.363
151.753
154.929
157.878
160.582
163.027
165.197
167.079
168.658
169.922
170.859
171.459
171.711
171.606
171.138
170.301
169.089
167.501
165.536
163.193
160.477
157.392
153.945
150.145
146.002
141.529
136.738
131.647
126.271
120.628
114.738
108.621
102.298
95.792
89.125
82.322
75.406
68.403
61.336
54.23
47.11
40
32.924
25.905
18.965
12.126
5.411
-1.161
-7.571
-13.801
-19.834
-25.655
-31.252
-36.611
-41.724
-46.581
-51.175
-55.501
-59.555
-63.335
-66.839
-70.07
-73.028
-75.717
-78.142
-80.308
-82.222
-83.892
-85.326
-86.533
-87.522
-88.305
-88.893
-89.296
-89.527
-89.599
-89.523
-89.315
-88.988
-88.554
-88.028
-87.423
-86.751
-86.025
-85.258
-84.462
-83.646
-82.823
-82.003
-81.196
-80.411
-79.656
-78.939
-78.267
-77.645
-77.079
-76.573
-76.13
-75.754
-75.445
-75.208
-75.042
-74.95
-74.93
-74.983
-75.105
-75.296
-75.551
-75.865
-76.232
-76.645
-77.099
-77.586
-78.1
-78.634
-79.18
-79.733
-80.287
-80.836
-81.371
-81.884
-82.363
-82.8
-83.183
-83.503
-83.748
-83.909
-83.977
-83.945
-83.811
-83.569
-83.214
-82.738
-82.13
-81.384
-80.501
-79.482
-78.329
-77.049
-75.655
-74.168
-72.621
-71.04
-69.441
-67.836
-66.226
-64.616
-63.014
-61.426
-59.855
-58.302
-56.763
-55.241
-53.747
-52.278
-50.821
-49.349
-47.812
-46.183
-44.462
-42.656
-40.789
-38.888
-36.979
-35.11
-33.348
-31.757
-30.397
-29.312
-28.531
-28.098
-28.068
-28.505
-29.484
-31.038
-33.164
-35.849
-39.062
-42.764
-46.901
-51.383
-56.084
-60.883
-65.667
-70.34
-74.824
-79.032
-82.874
-86.28
-89.213
-91.687
-93.751
-95.447
-96.804
-97.88
-98.778
-99.637
-100.649
-102.001
-103.827
-106.313
-109.715
-114.115
-119.414
-125.299
-131.139
-136.339
-140.538
-143.209
-143.687
-141.855
-138.03
-133.11
-128.787
-126.275
-125.974
-128.491
-134.454
-143.376
-153.946
-163.533
-167.941
-163.984
-149.816
-122.986
-81.084
-23.095
51.313
139.004
233.235
329.318
423.31
513.19
600.452
682.487
753.091
803.03
818.907
793.056
725.715
623.271
497.711
359.838
218.656
85.024
-28.347
-111.12
-158.798
-176.915
-179.115
-175.258
-170.436
-164.344
-152.46
-135.932
-118.381
-102.72
-92.604
-88.531
-88.777
-92.352
-97.483
-101.652
-103.71
-103.185
-99.909
-94.681
-88.306
-81.195
-74.07
-67.836
-62.93
-59.542
-57.664
-56.926
-57.054
-57.905
-59.226
-60.764
-62.323
-63.7
-64.763
-65.442
-65.65
-65.327
-64.467
-63.093
-61.255
-59.018
-56.424
-53.51
-50.301
-46.8
-43.021
-38.984
-34.71
-30.243
-25.63
-20.918
-16.15
-11.344
-6.494
-1.57
3.459
8.623
13.932
19.384
24.961
30.62
36.322
42.032
47.72
53.37
58.973
64.522
70.015
75.448
80.805
86.063
91.196
96.18
101
105.651
110.134
114.46
118.64
122.685
126.599
130.383
134.032
137.536
140.885
144.061
147.051
149.845
152.432
154.806
156.956
158.872
160.54
161.948
163.081
163.926
164.471
164.706
164.62
164.209
163.467
162.393
160.986
159.244
157.168
154.759
152.017
148.947
145.553
141.84
137.815
133.487
128.867
123.969
118.805
113.391
107.744
101.882
95.825
89.593
83.207
76.689
70.063
63.351
56.577
49.767
42.943
36.132
29.356
22.64
16.008
9.481
3.082
-3.168
-9.25
-15.145
-20.835
-26.304
-31.538
-36.522
-41.246
-45.697
-49.869
-53.754
-57.347
-60.645
-63.647
-66.352
-68.763
-70.883
-72.718
-74.273
-75.556
-76.577
-77.346
-77.875
-78.177
-78.265
-78.155
-77.863
-77.404
-76.795
-76.052
-75.194
-74.236
-73.196
-72.092
-70.938
-69.753
-68.552
-67.351
-66.164
-65.005
-63.887
-62.821
-61.819
-60.888
-60.039
-59.278
-58.611
-58.042
-57.577
-57.219
-56.969
-56.829
-56.799
-56.878
-57.063
-57.351
-57.738
-58.22
-58.79
-59.443
-60.171
-60.967
-61.824
-62.732
-63.683
-64.667
-65.674
-66.693
-67.712
-68.719
-69.704
-70.657
-71.566
-72.424
-73.221
-73.951
-74.607
-75.184
-75.676
-76.078
-76.382
-76.581
-76.67
-76.643
-76.493
-76.216
-75.805
-75.256
-74.569
-73.744
-72.779
-71.674
-70.42
-69.019
-67.475
-65.796
-63.994
-62.084
-60.081
-58.008
-55.9
-53.789
-51.705
-49.675
-47.714
-45.832
-44.046
-42.369
-40.815
-39.389
-38.078
-36.863
-35.734
-34.674
-33.668
-32.693
-31.7
-30.646
-29.505
-28.255
-26.899
-25.449
-23.913
-22.31
-20.682
-19.082
-17.589
-16.301
-15.287
-14.609
-14.325
-14.482
-15.144
-16.366
-18.17
-20.569
-23.556
-27.101
-31.173
-35.722
-40.651
-45.845
-51.162
-56.436
-61.542
-66.376
-70.864
-74.987
-78.735
-82.112
-85.138
-87.817
-90.183
-92.323
-94.338
-96.355
-98.546
-101.039
-104.052
-107.914
-112.719
-118.34
-124.42
-130.249
-135.212
-139.007
-141.148
-140.999
-138.527
-134.114
-128.75
-124.249
-121.792
-121.609
-124.097
-129.64
-137.513
-146.268
-153.215
-154.172
-146.13
-127.545
-96.331
-50.454
10.766
87.419
176.331
270.904
366.586
459.638
548.552
635.157
716.855
787.815
837.635
851.499
822.948
752.403
648.413
526.033
392.378
253.108
115.36
-12.435
-115.015
-181.864
-214.157
-221.754
-217.819
-211.108
-202.788
-189.295
-169.945
-147.762
-126.611
-110.545
-100.785
-96.042
-95.087
-96.454
-98.113
-98.326
-96.109
-91.15
-83.972
-75.525
-66.491
-57.434
-49.12
-42.318
-37.489
-34.83
-34.192
-35.187
-37.512
-40.909
-45.08
-49.733
-54.565
-59.271
-63.628
-67.48
-70.701
-73.214
-74.952
-75.846
-75.858
-74.958
-73.155
-70.497
-67.037
-62.831
-57.95
-52.476
-46.524
-40.245
-33.765
-27.184
-20.576
-13.977
-7.424
-0.957
5.401
11.634
17.737
23.718
29.576
35.303
40.904
46.387
51.777
57.113
62.421
67.717
73.009
78.294
83.57
88.834
94.076
99.279
104.428
109.506
114.503
119.411
124.219
128.913
133.478
137.893
142.142
146.209
150.079
153.735
157.163
160.346
163.273
165.933
168.314
170.404
172.189
173.657
174.795
175.592
176.038
176.122
175.838
175.177
174.137
172.714
170.907
168.718
166.147
163.2
159.882
156.201
152.165
147.787
143.078
138.052
132.726
127.116
121.241
115.121
108.776
102.229
95.504
88.623
81.612
74.496
67.301
60.052
52.776
45.5
38.249
31.05
23.927
16.905
10.008
3.258
-3.325
-9.719
-15.907
-21.873
-27.6
-33.076
-38.288
-43.227
-47.884
-52.253
-56.328
-60.108
-63.59
-66.774
-69.664
-72.26
-74.569
-76.596
-78.349
-79.835
-81.064
-82.048
-82.797
-83.324
-83.644
-83.768
-83.713
-83.493
-83.122
-82.616
-81.989
-81.256
-80.432
-79.531
-78.568
-77.555
-76.507
-75.435
-74.351
-73.266
-72.19
-71.132
-70.101
-69.104
-68.149
-67.242
-66.388
-65.592
-64.859
-64.192
-63.595
-63.07
-62.618
-62.24
-61.936
-61.706
-61.549
-61.465
-61.452
-61.51
-61.635
-61.827
-62.083
-62.401
-62.778
-63.211
-63.696
-64.229
-64.808
-65.428
-66.085
-66.775
-67.495
-68.239
-69.005
-69.786
-70.577
-71.374
-72.169
-72.956
-73.729
-74.48
-75.2
-75.886
-76.529
-77.125
-77.667
-78.148
-78.561
-78.9
-79.16
-79.329
-79.4
-79.361
-79.204
-78.922
-78.508
-77.955
-77.258
-76.411
-75.41
-74.255
-72.947
-71.479
-69.847
-68.042
-66.065
-63.927
-61.64
-59.22
-56.679
-54.031
-51.299
-48.506
-45.675
-42.818
-39.935
-37.025
-34.097
-31.171
-28.277
-25.444
-22.69
-20.022
-17.443
-14.962
-12.595
-10.351
-8.222
-6.194
-4.268
-2.471
-0.858
0.517
1.621
2.433
2.947
3.152
3.026
2.538
1.666
0.406
-1.241
-3.263
-5.669
-8.479
-11.68
-15.221
-19.018
-22.978
-27.03
-31.117
-35.178
-39.15
-42.959
-46.523
-49.798
-52.757
-55.4
-57.775
-59.912
-61.833
-63.593
-65.233
-66.819
-68.469
-70.287
-72.392
-74.962
-78.09
-81.905
-86.686
-92.506
-99.275
-106.686
-113.929
-120.192
-125.018
-127.831
-127.879
-124.9
-118.965
-110.982
-103.202
-97.538
-94.176
-92.464
-92.203
-93.5
-99.239
-112.691
-131.405
-148.495
-151.77
-127.154
-67.931
23.038
134.966
253.563
367.007
471.18
567.349
657.645
743.262
819.278
875.189
898.987
881.215
819.722
721.03
596.545
456.074
307.927
160.544
24.833
-85.033
-158.987
-197.281
-210.191
-210.593
-207.292
-202.002
-190.753
-172.501
-150.375
-128.378
-111.004
-99.909
-93.911
-91.879
-92.45
-93.567
-93.302
-90.476
-84.603
-76.093
-65.902
-54.741
-43.208
-32.177
-22.616
-15.166
-10.117
-7.381
-6.583
-7.417
-9.653
-13.02
-17.215
-21.945
-26.936
-31.969
-36.897
-41.58
-45.873
-49.623
-52.662
-54.853
-56.119
-56.435
-55.818
-54.299
-51.911
-48.698
-44.721
-40.069
-34.842
-29.132
-23.018
-16.567
-9.845
-2.937
4.059
11.059
18.011
24.885
31.671
38.357
44.928
51.379
57.721
63.971
70.145
76.251
82.287
88.253
94.153
100
105.81
111.591
117.342
123.054
128.716
134.317
139.844
145.279
150.597
155.772
160.783
165.611
170.241
174.656
178.835
182.758
186.406
189.759
192.803
195.52
197.895
199.912
201.56
202.826
203.704
204.184
204.258
203.921
203.165
201.988
200.387
198.362
195.914
193.045
189.762
186.072
181.986
177.514
172.671
167.471
161.931
156.07
149.906
143.461
136.757
129.815
122.661
115.319
107.814
100.172
92.418
84.581
76.685
68.758
60.827
52.918
45.055
37.265
29.572
21.999
14.57
7.305
0.224
-6.654
-13.312
-19.735
-25.907
-31.819
-37.458
-42.817
-47.888
-52.667
-57.149
-61.332
-65.216
-68.802
-72.091
-75.086
-77.793
-80.217
-82.365
-84.245
-85.865
-87.237
-88.369
-89.275
-89.966
-90.455
-90.755
-90.88
-90.844
-90.662
-90.346
-89.912
-89.373
-88.743
-88.036
-87.264
-86.44
-85.576
-84.684
-83.775
-82.859
-81.946
-81.046
-80.166
-79.315
-78.5
-77.728
-77.005
-76.336
-75.727
-75.181
-74.702
-74.292
-73.955
-73.691
-73.502
-73.386
-73.345
-73.376
-73.478
-73.649
-73.888
-74.191
-74.555
-74.977
-75.454
-75.982
-76.557
-77.174
-77.831
-78.521
-79.241
-79.986
-80.751
-81.531
-82.321
-83.115
-83.91
-84.698
-85.476
-86.237
-86.977
-87.689
-88.369
-89.012
-89.611
-90.163
-90.663
-91.106
-91.487
-91.803
-92.05
-92.223
-92.319
-92.334
-92.264
-92.106
-91.856
-91.511
-91.068
-90.524
-89.877
-89.125
-88.266
-87.299
-86.224
-85.04
-83.747
-82.348
-80.844
-79.238
-77.533
-75.733
-73.845
-71.873
-69.825
-67.708
-65.531
-63.306
-61.044
-58.756
-56.456
-54.159
-51.879
-49.631
-47.428
-45.285
-43.214
-41.231
-39.348
-37.582
-35.948
-34.463
-33.144
-32.006
-31.062
-30.323
-29.795
-29.484
-29.395
-29.533
-29.91
-30.538
-31.425
-32.585
-34.023
-35.74
-37.73
-39.967
-42.411
-45.027
-47.775
-50.615
-53.521
-56.455
-59.379
-62.258
-65.032
-67.643
-70.037
-72.15
-73.93
-75.35
-76.406
-77.156
-77.698
-78.125
-78.526
-78.966
-79.503
-80.258
-81.364
-82.951
-85.19
-88.178
-92.07
-97.163
-103.509
-110.936
-119.058
-127.047
-134.127
-139.905
-143.771
-144.989
-143.573
-139.834
-134.727
-130.385
-128.252
-128.873
-133.069
-141.203
-152.311
-164.916
-176.055
-180.815
-175.555
-157.628
-123.887
-72.218
-2.013
86.258
188.452
297.048
406.09
510.642
608.304
698.911
778.233
838.382
867.194
853.422
795.188
698.418
577.111
445.596
309.997
175.374
46.709
-69.375
-160.491
-221.354
-255.689
-269.599
-273.345
-271.093
-260.136
-240.828
-214.136
-183.769
-156.333
-134.228
-117.113
-105.047
-97.234
-93.069
-92.73
-94.395
-95.434
-95.007
-93.078
-89.775
-85.58
-80.375
-73.489
-65.605
-58.236
-52.155
-47.781
-45.111
-43.688
-43.485
-44.837
-47.498
-50.772
-54.115
-57.021
-59.251
-60.902
-61.94
-62.198
-61.624
-60.229
-58.041
-55.168
-51.677
-47.558
-42.845
-37.602
-31.915
-25.935
-19.799
-13.604
-7.434
-1.334
4.67
10.547
16.278
21.854
27.264
32.513
37.609
42.55
47.339
51.986
56.513
60.962
65.375
69.78
74.197
78.634
83.093
87.578
92.087
96.61
101.137
105.66
110.168
114.658
119.122
123.55
127.93
132.245
136.475
140.604
144.614
148.488
152.209
155.757
159.116
162.27
165.204
167.901
170.343
172.511
174.389
175.959
177.205
178.112
178.663
178.847
178.651
178.067
177.086
175.702
173.912
171.714
169.106
166.092
162.676
158.865
154.665
150.089
145.148
139.858
134.234
128.295
122.061
115.554
108.797
101.815
94.634
87.279
79.779
72.161
64.453
56.685
48.884
41.08
33.299
25.571
17.923
10.38
2.967
-4.29
-11.371
-18.252
-24.916
-31.343
-37.517
-43.425
-49.052
-54.389
-59.425
-64.153
-68.569
-72.667
-76.447
-79.907
-83.049
-85.876
-88.393
-90.606
-92.524
-94.153
-95.506
-96.592
-97.425
-98.016
-98.381
-98.531
-98.484
-98.252
-97.853
-97.301
-96.613
-95.803
-94.888
-93.881
-92.799
-91.656
-90.465
-89.239
-87.993
-86.737
-85.484
-84.245
-83.031
-81.852
-80.718
-79.637
-78.618
-77.666
-76.79
-75.993
-75.279
-74.654
-74.118
-73.674
-73.324
-73.067
-72.903
-72.833
-72.855
-72.966
-73.165
-73.447
-73.809
-74.248
-74.758
-75.335
-75.973
-76.667
-77.412
-78.203
-79.032
-79.893
-80.778
-81.68
-82.589
-83.496
-84.391
-85.263
-86.102
-86.899
-87.644
-88.33
-88.946
-89.487
-89.946
-90.318
-90.595
-90.771
-90.837
-90.786
-90.61
-90.303
-89.857
-89.266
-88.523
-87.626
-86.575
-85.371
-84.012
-82.494
-80.812
-78.965
-76.959
-74.803
-72.507
-70.084
-67.552
-64.94
-62.287
-59.631
-57.002
-54.418
-51.889
-49.426
-47.04
-44.743
-42.549
-40.454
-38.45
-36.538
-34.72
-32.999
-31.367
-29.795
-28.231
-26.632
-24.978
-23.27
-21.529
-19.773
-18.031
-16.345
-14.77
-13.384
-12.261
-11.449
-10.979
-10.871
-11.142
-11.832
-13.005
-14.698
-16.925
-19.675
-22.909
-26.585
-30.641
-34.98
-39.483
-44.005
-48.412
-52.624
-56.581
-60.264
-63.704
-66.914
-69.903
-72.697
-75.304
-77.76
-80.169
-82.631
-85.276
-88.277
-91.76
-95.931
-101.058
-107.167
-114.085
-121.428
-128.473
-134.592
-139.441
-142.472
-143.043
-141.087
-136.876
-131.28
-125.922
-121.859
-119.428
-119.164
-121.582
-126.234
-131.9
-136.102
-135.12
-126.17
-107.42
-76.64
-31.568
29.023
105.232
193.774
288.317
384.043
476.348
563.547
647.569
725.16
790.185
832.509
836.506
795.058
710.525
590.206
447.155
292.972
135.526
-12.487
-133.273
-214.479
-251.281
-251.287
-234.723
-216.449
-202.98
-194.215
-183.645
-169.548
-154.33
-140.582
-131.699
-128.01
-127.752
-129.423
-130.795
-129.901
-125.991
-118.842
-108.818
-96.868
-83.82
-70.344
-57.278
-45.462
-35.408
-27.395
-21.453
-17.351
-14.865
-13.807
-13.93
-14.979
-16.74
-19.002
-21.592
-24.372
-27.18
-29.884
-32.383
-34.567
-36.335
-37.569
-38.151
-38.017
-37.15
-35.554
-33.256
-30.283
-26.67
-22.488
-17.817
-12.736
-7.322
-1.622
4.329
10.481
16.778
23.149
29.512
35.818
42.039
48.152
54.143
60.003
65.723
71.317
76.807
82.209
87.532
92.777
97.937
103.014
108.017
112.955
117.845
122.693
127.497
132.252
136.954
141.592
146.155
150.623
154.97
159.175
163.219
167.085
170.759
174.222
177.456
180.443
183.163
185.601
187.739
189.561
191.054
192.203
192.998
193.429
193.49
193.175
192.479
191.397
189.928
188.07
185.824
183.194
180.183
176.797
173.046
168.94
164.49
159.71
154.616
149.225
143.553
137.622
131.451
125.062
118.478
111.723
104.819
97.792
90.665
83.465
76.215
68.941
61.666
54.416
47.215
40.084
33.048
26.126
19.341
12.711
6.254
-0.014
-6.076
-11.92
-17.532
-22.902
-28.02
-32.878
-37.47
-41.791
-45.838
-49.608
-53.101
-56.319
-59.263
-61.938
-64.346
-66.495
-68.391
-70.041
-71.453
-72.637
-73.603
-74.36
-74.92
-75.295
-75.496
-75.536
-75.428
-75.184
-74.818
-74.341
-73.767
-73.108
-72.375
-71.582
-70.74
-69.859
-68.952
-68.027
-67.094
-66.164
-65.243
-64.339
-63.459
-62.608
-61.792
-61.015
-60.281
-59.593
-58.953
-58.362
-57.821
-57.331
-56.889
-56.496
-56.148
-55.842
-55.575
-55.341
-55.137
-54.956
-54.793
-54.642
-54.495
-54.345
-54.186
-54.008
-53.805
-53.569
-53.291
-52.964
-52.581
-52.135
-51.62
-51.029
-50.358
-49.602
-48.757
-47.821
-46.792
-45.668
-44.449
-43.137
-41.733
-40.24
-38.663
-37.008
-35.284
-33.499
-31.664
-29.79
-27.892
-25.983
-24.078
-22.191
-20.335
-18.526
-16.779
-15.108
-13.532
-12.066
-10.728
-9.536
-8.506
-7.654
-6.991
-6.527
-6.268
-6.221
-6.391
-6.791
-7.433
-8.327
-9.483
-10.907
-12.6
-14.557
-16.76
-19.178
-21.779
-24.523
-27.377
-30.313
-33.3
-36.304
-39.289
-42.198
-44.978
-47.577
-49.944
-52.039
-53.833
-55.315
-56.522
-57.532
-58.425
-59.286
-60.17
-61.127
-62.254
-63.658
-65.452
-67.78
-70.735
-74.452
-79.151
-84.875
-91.476
-98.622
-105.679
-112.026
-117.289
-120.906
-122.168
-120.934
-117.474
-112.652
-108.055
-104.797
-103.314
-104.311
-108.603
-115.983
-125.271
-133.877
-138.049
-134.981
-122.559
-98.089
-58.635
-2.302
69.782
152.935
241.809
332.947
426.791
525.079
624
713.062
775.788
796.002
767.579
696.626
598.898
490.363
378.238
261.423
136.612
7.441
-111.019
-200.512
-250.653
-263.392
-252.335
-232.793
-213.097
-194.93
-176.068
-155.58
-135.166
-117.445
-104.948
-97.986
-95.438
-95.883
-97.057
-96.944
-94.67
-89.957
-83.151
-75.075
-66.378
-57.628
-49.638
-43.254
-38.957
-36.892
-36.908
-38.613
-41.678
-45.837
-50.77
-56.102
-61.476
-66.59
-71.229
-75.294
-78.7
-81.348
-83.146
-83.997
-83.854
-82.728
-80.66
-77.702
-73.911
-69.36
-64.142
-58.392
-52.263
-45.887
-39.373
-32.791
-26.192
-19.624
-13.136
-6.769
-0.545
5.535
11.475
17.277
22.938
28.462
33.867
39.187
44.464
49.727
54.99
60.263
65.547
70.842
76.147
81.453
86.741
91.995
97.201
102.348
107.426
112.426
117.334
122.132
126.803
131.331
135.701
139.897
143.9
147.693
151.258
154.581
157.65
160.45
162.968
165.191
167.106
168.699
169.958
170.865
171.4
171.549
171.301
170.652
169.6
168.152
166.322
164.124
161.579
158.701
155.502
151.984
148.143
143.976
139.477
134.653
129.519
124.092
118.385
112.41
106.174
99.677
92.907
85.848
78.477
70.788
62.79
54.516
46.019
37.366
28.636
19.895
11.197
2.59
-5.882
-14.172
-22.235
-30.015
-37.447
-44.458
-50.962
-56.894
-62.21
-66.898
-70.976
-74.486
-77.49
-80.045
-82.195
-83.979
-85.427
-86.567
-87.429
-88.046
-88.457
-88.715
-88.89
-89.038
-89.207
-89.422
-89.684
-89.977
-90.27
-90.533
-90.747
-90.897
-90.983
-91.006
-90.973
-90.894
-90.778
-90.627
-90.429
-90.177
-89.863
-89.488
-89.064
-88.609
-88.149
-87.705
-87.298
-86.945
-86.652
-86.425
-86.26
-86.154
-86.096
-86.079
-86.1
-86.153
-86.235
-86.341
-86.463
-86.591
-86.711
-86.813
-86.882
-86.908
-86.88
-86.79
-86.629
-86.392
-86.075
-85.673
-85.181
-84.594
-83.901
-83.098
-82.18
-81.141
-79.98
-78.695
-77.284
-75.748
-74.095
-72.328
-70.452
-68.469
-66.376
-64.178
-61.889
-59.527
-57.115
-54.676
-52.23
-49.804
-47.429
-45.129
-42.922
-40.814
-38.794
-36.866
-35.04
-33.333
-31.778
-30.391
-29.177
-28.137
-27.269
-26.566
-26.019
-25.605
-25.282
-25.034
-24.871
-24.828
-24.967
-25.334
-25.951
-26.831
-27.97
-29.36
-30.992
-32.844
-34.894
-37.125
-39.534
-42.138
-44.975
-48.041
-51.292
-54.646
-57.988
-61.228
-64.286
-67.104
-69.641
-71.891
-73.912
-75.782
-77.596
-79.42
-81.264
-83.143
-85.087
-87.158
-89.487
-92.231
-95.505
-99.476
-104.37
-110.198
-116.809
-123.815
-130.44
-136.006
-140.015
-141.794
-140.854
-137.302
-131.605
-124.894
-118.886
-114.656
-112.933
-114.688
-120.074
-128.141
-137.066
-143.508
-143.625
-134.779
-114.337
-79.248
-27.677
40.985
124.555
217.42
314.148
410.995
506.405
599.536
686.075
756.978
800.032
805.339
769.33
696.54
596.751
476.892
343.536
203.147
64.634
-54.257
-139.994
-187.649
-201.647
-198.021
-188.989
-179.978
-171.6
-159.536
-143.765
-127.385
-113.201
-104.517
-101.784
-103.244
-107.393
-112.023
-114.845
-114.899
-111.824
-105.708
-97.318
-87.424
-76.638
-65.82
-55.904
-47.392
-40.519
-35.316
-31.573
-29.15
-27.954
-27.787
-28.403
-29.612
-31.233
-33.129
-35.209
-37.332
-39.361
-41.202
-42.781
-44.051
-44.972
-45.479
-45.489
-44.934
-43.779
-42.014
-39.65
-36.709
-33.222
-29.233
-24.806
-20.015
-14.918
-9.555
-3.952
1.869
7.874
14.012
20.217
26.433
32.618
38.741
44.779
50.714
56.529
62.222
67.804
73.286
78.675
83.969
89.157
94.232
99.193
104.048
108.808
113.479
118.059
122.547
126.936
131.221
135.391
139.432
143.321
147.036
150.561
153.878
156.975
159.836
162.444
164.783
166.835
168.587
170.026
171.139
171.914
172.341
172.411
172.12
171.464
170.44
169.047
167.284
165.15
162.65
159.786
156.565
152.992
149.078
144.833
140.268
135.398
130.239
124.807
119.12
113.197
107.059
100.728
94.227
87.58
80.81
73.942
67.002
60.016
53.007
46.001
39.024
32.098
25.248
18.497
11.867
5.379
-0.947
-7.093
-13.041
-18.776
-24.284
-29.552
-34.569
-39.326
-43.817
-48.034
-51.974
-55.635
-59.015
-62.114
-64.936
-67.483
-69.761
-71.776
-73.536
-75.05
-76.327
-77.38
-78.219
-78.858
-79.31
-79.589
-79.709
-79.686
-79.534
-79.269
-78.905
-78.459
-77.943
-77.374
-76.764
-76.127
-75.475
-74.821
-74.174
-73.544
-72.941
-72.372
-71.843
-71.361
-70.931
-70.556
-70.24
-69.985
-69.791
-69.658
-69.587
-69.573
-69.616
-69.711
-69.854
-70.038
-70.259
-70.508
-70.779
-71.063
-71.352
-71.636
-71.907
-72.153
-72.366
-72.535
-72.649
-72.699
-72.675
-72.567
-72.367
-72.067
-71.659
-71.136
-70.492
-69.723
-68.823
-67.79
-66.62
-65.312
-63.865
-62.279
-60.557
-58.702
-56.717
-54.607
-52.379
-50.042
-47.606
-45.084
-42.488
-39.834
-37.137
-34.416
-31.688
-28.97
-26.281
-23.638
-21.058
-18.561
-16.166
-13.894
-11.765
-9.801
-8.02
-6.44
-5.076
-3.939
-3.037
-2.378
-1.97
-1.828
-1.969
-2.405
-3.153
-4.223
-5.621
-7.346
-9.379
-11.689
-14.243
-17.001
-19.925
-22.987
-26.154
-29.386
-32.646
-35.878
-39.016
-42.004
-44.774
-47.27
-49.45
-51.302
-52.864
-54.213
-55.436
-56.619
-57.823
-59.116
-60.61
-62.428
-64.707
-67.606
-71.238
-75.776
-81.488
-88.439
-96.483
-105.245
-114.004
-122.076
-129.057
-134.363
-137.282
-137.721
-136.008
-133.111
-130.836
-130.422
-132.28
-136.987
-145.044
-155.834
-167.873
-178.271
-182.724
-177.977
-161.879
-131.983
-85.951
-22.539
58.283
153.071
255.135
358.931
459.099
553.288
643.257
726.914
799.656
852.071
867.759
836.682
758.124
638.725
493.81
338.942
185.101
44.561
-68.636
-146.104
-185.221
-192.644
-185.026
-174.182
-165.132
-158.009
-147.997
-134.722
-121.176
-109.997
-104.148
-103.707
-106.917
-112.329
-117.804
-121.318
-121.971
-119.426
-113.953
-106.434
-97.678
-88.378
-79.387
-71.56
-65.385
-61.042
-58.456
-57.319
-57.355
-58.356
-60.064
-62.201
-64.541
-66.894
-69.106
-71.076
-72.675
-73.761
-74.238
-74.047
-73.162
-71.605
-69.405
-66.602
-63.255
-59.437
-55.211
-50.646
-45.805
-40.747
-35.537
-30.241
-24.922
-19.636
-14.424
-9.312
-4.312
0.575
5.358
10.046
14.657
19.21
23.72
28.197
32.65
37.085
41.509
45.931
50.356
54.79
59.236
63.691
68.154
72.619
77.078
81.523
85.942
90.321
94.65
98.917
103.108
107.212
111.214
115.101
118.856
122.465
125.911
129.177
132.244
135.094
137.71
140.074
142.169
143.979
145.487
146.678
147.539
148.057
148.221
148.02
147.447
146.493
145.155
143.428
141.312
138.807
135.916
132.643
128.995
124.982
120.614
115.905
110.869
105.523
99.887
93.981
87.826
81.445
74.864
68.108
61.204
54.18
47.063
39.882
32.666
25.443
18.24
11.086
4.006
-2.973
-9.826
-16.531
-23.064
-29.404
-35.533
-41.431
-47.083
-52.475
-57.593
-62.427
-66.968
-71.209
-75.145
-78.773
-82.091
-85.101
-87.805
-90.206
-92.311
-94.127
-95.663
-96.929
-97.936
-98.699
-99.23
-99.544
-99.656
-99.584
-99.342
-98.947
-98.417
-97.765
-97.01
-96.167
-95.251
-94.277
-93.259
-92.212
-91.148
-90.079
-89.018
-87.976
-86.962
-85.986
-85.056
-84.181
-83.366
-82.619
-81.943
-81.342
-80.821
-80.38
-80.022
-79.745
-79.549
-79.432
-79.391
-79.421
-79.516
-79.67
-79.878
-80.133
-80.427
-80.755
-81.109
-81.483
-81.872
-82.271
-82.673
-83.071
-83.459
-83.829
-84.173
-84.482
-84.748
-84.961
-85.112
-85.19
-85.189
-85.101
-84.917
-84.628
-84.22
-83.685
-83.018
-82.22
-81.291
-80.238
-79.07
-77.801
-76.454
-75.051
-73.61
-72.146
-70.67
-69.189
-67.708
-66.238
-64.79
-63.366
-61.956
-60.545
-59.113
-57.637
-56.09
-54.436
-52.624
-50.61
-48.365
-45.871
-43.129
-40.152
-36.963
-33.591
-30.071
-26.457
-22.82
-19.239
-15.804
-12.605
-9.73
-7.288
-5.402
-4.176
-3.697
-4.029
-5.202
-7.222
-10.068
-13.689
-18.018
-22.961
-28.412
-34.252
-40.343
-46.553
-52.748
-58.768
-64.45
-69.65
-74.242
-78.124
-81.248
-83.611
-85.255
-86.279
-86.786
-86.874
-86.666
-86.327
-86.04
-86.004
-86.428
-87.48
-89.383
-92.433
-96.723
-102.151
-108.388
-114.774
-120.664
-125.636
-129.096
-130.311
-129.168
-125.988
-121.67
-117.93
-116.039
-116.467
-119.856
-126.87
-136.945
-148.56
-158.954
-163.952
-160.118
-145.162
-116.688
-72.033
-9.824
69.317
162.911
265.501
370.238
472.731
568.941
654.981
730.068
788.647
821.188
821.026
781.412
704.308
602.035
482.828
352.018
214.331
71.65
-63.09
-168.055
-231.608
-250.865
-235.805
-208.591
-182.357
-161.72
-147.278
-133.799
-119.738
-107.452
-98.556
-94.792
-96.242
-101.071
-106.956
-111.542
-113.481
-112.445
-108.714
-103.031
-96.099
-88.498
-81
-74.412
-69.16
-65.363
-62.888
-61.372
-60.504
-60.07
-59.803
-59.446
-58.836
-57.836
-56.374
-54.47
-52.107
-49.291
-46.091
-42.557
-38.757
-34.794
-30.743
-26.692
-22.736
-18.933
-15.324
-11.943
-8.787
-5.853
-3.125
-0.545
1.935
4.373
6.855
9.439
12.185
15.158
18.402
21.958
25.861
30.123
34.737
39.699
44.98
50.544
56.344
62.309
68.375
74.491
80.597
86.651
92.617
98.455
104.142
109.661
114.995
120.134
125.071
129.795
134.302
138.594
142.675
146.559
150.252
153.754
157.061
160.166
163.057
165.724
168.15
170.312
172.192
173.775
175.043
175.987
176.593
176.849
176.744
176.267
175.41
174.167
172.536
170.516
168.108
165.315
162.144
158.605
154.708
150.465
145.888
140.99
135.787
130.296
124.534
118.52
112.274
105.817
99.172
92.362
85.412
78.347
71.191
63.969
56.708
49.433
42.168
34.937
27.765
20.675
13.69
6.831
0.12
-6.423
-12.781
-18.934
-24.868
-30.566
-36.016
-41.207
-46.129
-50.773
-55.133
-59.205
-62.984
-66.469
-69.66
-72.558
-75.165
-77.485
-79.524
-81.288
-82.786
-84.026
-85.018
-85.774
-86.304
-86.623
-86.741
-86.673
-86.431
-86.031
-85.487
-84.813
-84.024
-83.136
-82.165
-81.125
-80.032
-78.901
-77.746
-76.58
-75.415
-74.263
-73.136
-72.044
-70.995
-69.999
-69.063
-68.194
-67.398
-66.68
-66.043
-65.491
-65.025
-64.645
-64.353
-64.148
-64.028
-63.992
-64.037
-64.16
-64.36
-64.63
-64.967
-65.364
-65.814
-66.311
-66.845
-67.406
-67.984
-68.57
-69.154
-69.726
-70.277
-70.799
-71.282
-71.721
-72.108
-72.436
-72.697
-72.882
-72.982
-72.99
-72.898
-72.7
-72.387
-71.953
-71.392
-70.703
-69.885
-68.934
-67.848
-66.616
-65.237
-63.716
-62.057
-60.269
-58.364
-56.355
-54.265
-52.128
-49.976
-47.84
-45.743
-43.691
-41.697
-39.774
-37.932
-36.186
-34.536
-32.966
-31.469
-30.04
-28.672
-27.362
-26.083
-24.784
-23.425
-21.977
-20.425
-18.785
-17.072
-15.296
-13.499
-11.723
-10.035
-8.532
-7.282
-6.332
-5.725
-5.485
-5.647
-6.277
-7.417
-9.085
-11.292
-14.008
-17.198
-20.829
-24.81
-29.03
-33.358
-37.629
-41.723
-45.565
-49.099
-52.334
-55.3
-58.003
-60.471
-62.725
-64.788
-66.764
-68.762
-70.9
-73.358
-76.281
-79.881
-84.496
-90.215
-96.872
-104.093
-111.147
-117.361
-122.407
-125.741
-126.636
-125.022
-121.253
-116.318
-112.022
-109.516
-109.058
-111.116
-116.24
-123.929
-132.771
-139.91
-141.233
-133.799
-115.62
-84.427
-37.724
26.288
106.485
198.1
295.501
393.689
491.729
592.147
691.755
783.644
855.37
889.23
877.727
820.69
725.26
606.119
471.3
327.258
182.044
45.224
-67.765
-145.739
-188.492
-205.694
-211.284
-214.637
-216.423
-211.53
-197.251
-175.562
-151.536
-130.934
-115.889
-105.707
-99.518
-96.113
-94.325
-93.041
-90.585
-85.941
-79.234
-71
-61.924
-52.633
-43.595
-35.418
-28.916
-24.562
-22.395
-22.232
-23.675
-26.344
-29.974
-34.232
-38.716
-43.1
-47.113
-50.551
-53.331
-55.39
-56.652
-57.07
-56.597
-55.189
-52.864
-49.668
-45.657
-40.92
-35.548
-29.648
-23.363
-16.832
-10.172
-3.488
3.159
9.732
16.193
22.519
28.691
34.687
40.501
46.141
51.604
56.899
62.04
67.046
71.952
76.795
81.601
86.386
91.161
95.924
100.678
105.419
110.136
114.821
119.464
124.055
128.591
133.062
137.46
141.774
145.987
150.084
154.051
157.873
161.536
165.025
168.327
171.428
174.317
176.981
179.408
181.584
183.495
185.126
186.465
187.497
188.211
188.595
188.636
188.327
187.658
186.624
185.219
183.439
181.282
178.748
175.838
172.556
168.907
164.897
160.537
155.836
150.807
145.465
139.825
133.904
127.722
121.299
114.657
107.819
100.807
93.647
86.364
78.983
71.531
64.032
56.514
49.003
41.526
34.107
26.772
19.546
12.452
5.514
-1.249
-7.815
-14.167
-20.287
-26.16
-31.774
-37.116
-42.176
-46.947
-51.421
-55.596
-59.467
-63.034
-66.297
-69.259
-71.923
-74.296
-76.384
-78.195
-79.738
-81.024
-82.065
-82.871
-83.456
-83.834
-84.019
-84.026
-83.87
-83.569
-83.137
-82.592
-81.949
-81.226
-80.437
-79.598
-78.724
-77.827
-76.921
-76.018
-75.129
-74.265
-73.434
-72.646
-71.908
-71.227
-70.609
-70.059
-69.58
-69.176
-68.849
-68.6
-68.431
-68.341
-68.331
-68.398
-68.542
-68.76
-69.049
-69.405
-69.823
-70.296
-70.82
-71.386
-71.985
-72.609
-73.25
-73.899
-74.549
-75.191
-75.819
-76.425
-77.004
-77.55
-78.059
-78.524
-78.937
-79.29
-79.577
-79.79
-79.921
-79.962
-79.905
-79.742
-79.471
-79.086
-78.584
-77.956
-77.192
-76.287
-75.239
-74.052
-72.731
-71.283
-69.716
-68.049
-66.31
-64.524
-62.718
-60.907
-59.091
-57.277
-55.473
-53.688
-51.933
-50.21
-48.5
-46.796
-45.092
-43.377
-41.645
-39.867
-37.991
-35.977
-33.801
-31.457
-28.974
-26.377
-23.688
-20.945
-18.191
-15.486
-12.921
-10.565
-8.465
-6.687
-5.285
-4.339
-3.965
-4.249
-5.248
-6.993
-9.462
-12.621
-16.438
-20.848
-25.762
-31.082
-36.667
-42.402
-48.205
-53.965
-59.575
-64.917
-69.832
-74.198
-77.936
-80.997
-83.407
-85.232
-86.533
-87.4
-87.922
-88.197
-88.399
-88.694
-89.226
-90.186
-91.692
-93.923
-97.213
-101.656
-107.121
-113.28
-119.368
-124.649
-128.736
-131.02
-130.755
-127.939
-122.863
-116.487
-110.967
-107.827
-107.758
-111.735
-120.253
-132.457
-146.9
-160.567
-168.404
-166.576
-152.204
-121.888
-73.301
-5.655
80.743
181.717
289.523
398.103
502.452
599.902
690.265
769.333
828.58
856.647
843.441
786.001
690.218
567.642
428.67
282.173
136.65
2.485
-106.715
-181.246
-221.173
-236.083
-238.317
-236.413
-232.113
-221.705
-204.241
-182.866
-161.582
-144.81
-134.193
-128.543
-126.702
-127.347
-128.493
-128.281
-125.575
-119.911
-111.686
-101.863
-91.163
-80.155
-69.671
-60.608
-53.548
-48.786
-46.252
-45.579
-46.467
-48.666
-51.867
-55.736
-59.94
-64.148
-68.106
-71.637
-74.601
-76.898
-78.443
-79.16
-78.997
-77.916
-75.922
-73.057
-69.375
-64.938
-59.821
-54.112
-47.935
-41.447
-34.784
-28.057
-21.345
-14.691
-8.133
-1.712
4.549
10.635
16.543
22.285
27.866
33.283
38.544
43.664
48.672
53.615
58.524
63.422
68.32
73.223
78.131
83.045
87.958
92.854
97.722
102.547
107.323
112.045
116.705
121.29
125.789
130.183
134.456
138.592
142.57
146.373
149.983
153.383
156.559
159.496
162.181
164.599
166.736
168.578
170.107
171.306
172.15
172.621
172.711
172.416
171.739
170.683
169.249
167.445
165.285
162.778
159.928
156.729
153.162
149.22
144.908
140.239
135.242
129.933
124.314
118.391
112.163
105.634
98.812
91.691
84.248
76.489
68.438
60.149
51.71
43.187
34.626
26.069
17.541
9.083
0.747
-7.419
-15.377
-23.077
-30.477
-37.512
-44.088
-50.155
-55.697
-60.728
-65.308
-69.475
-73.247
-76.641
-79.67
-82.352
-84.717
-86.78
-88.546
-90.033
-91.266
-92.292
-93.187
-93.99
-94.719
-95.369
-95.903
-96.303
-96.568
-96.693
-96.672
-96.507
-96.195
-95.751
-95.203
-94.57
-93.86
-93.071
-92.189
-91.211
-90.151
-89.028
-87.871
-86.706
-85.548
-84.418
-83.337
-82.322
-81.386
-80.533
-79.758
-79.06
-78.442
-77.91
-77.471
-77.129
-76.883
-76.733
-76.674
-76.705
-76.822
-77.019
-77.289
-77.624
-78.02
-78.47
-78.972
-79.52
-80.106
-80.725
-81.368
-82.027
-82.697
-83.368
-84.031
-84.68
-85.308
-85.91
-86.479
-87.008
-87.488
-87.911
-88.267
-88.549
-88.746
-88.85
-88.85
-88.738
-88.509
-88.16
-87.684
-87.073
-86.316
-85.407
-84.346
-83.136
-81.78
-80.287
-78.663
-76.926
-75.104
-73.22
-71.3
-69.358
-67.396
-65.421
-63.444
-61.473
-59.523
-57.595
-55.673
-53.75
-51.82
-49.874
-47.904
-45.883
-43.764
-41.513
-39.107
-36.546
-33.857
-31.064
-28.189
-25.265
-22.33
-19.443
-16.69
-14.142
-11.862
-9.918
-8.367
-7.293
-6.804
-6.975
-7.853
-9.448
-11.727
-14.653
-18.189
-22.273
-26.83
-31.76
-36.924
-42.201
-47.475
-52.625
-57.541
-62.103
-66.169
-69.659
-72.545
-74.842
-76.627
-77.972
-78.923
-79.572
-80.05
-80.509
-81.148
-82.162
-83.695
-85.963
-89.254
-93.674
-99.161
-105.423
-111.837
-117.833
-123.05
-126.946
-128.836
-128.573
-126.437
-123.288
-120.79
-120.102
-121.525
-125.57
-132.784
-142.632
-153.838
-163.857
-168.54
-164.794
-150.949
-124.718
-83.801
-27.174
45.69
131.91
224.769
319.397
411.91
501.039
589.445
675.63
753.819
812.039
833.02
807.79
735.7
627.875
503.223
370.525
235.926
102.502
-26.788
-135.708
-211.883
-251.725
-258.988
-249.604
-235.696
-221.662
-208.347
-192.586
-174.558
-157.129
-142.499
-132.835
-128.06
-126.763
-127.718
-128.896
-128.398
-125.446
-119.837
-112.017
-102.911
-93.232
-83.556
-74.628
-67.181
-61.609
-58.044
-56.372
-56.242
-57.339
-59.387
-62.042
-64.983
-67.938
-70.675
-73.018
-74.839
-76.023
-76.492
-76.211
-75.153
-73.319
-70.712
-67.33
-63.216
-58.445
-53.109
-47.323
-41.188
-34.791
-28.23
-21.599
-14.981
-8.437
-1.998
4.328
10.53
16.603
22.536
28.313
33.94
39.432
44.805
50.085
55.29
60.435
65.539
70.623
75.699
80.776
85.851
90.909
95.942
100.942
105.902
110.816
115.675
120.464
125.173
129.789
134.3
138.692
142.951
147.058
150.999
154.758
158.322
161.679
164.814
167.712
170.361
172.745
174.852
176.667
178.177
179.368
180.229
180.748
180.916
180.725
180.167
179.238
177.934
176.252
174.193
171.759
168.953
165.781
162.251
158.37
154.152
149.607
144.751
139.6
134.17
128.481
122.552
116.405
110.061
103.543
96.876
90.083
83.19
76.22
69.2
62.155
55.11
48.091
41.122
34.228
27.433
20.76
14.229
7.863
1.679
-4.303
-10.068
-15.601
-20.888
-25.919
-30.682
-35.171
-39.378
-43.299
-46.932
-50.273
-53.324
-56.085
-58.559
-60.751
-62.665
-64.307
-65.686
-66.809
-67.685
-68.326
-68.742
-68.946
-68.951
-68.771
-68.42
-67.913
-67.264
-66.489
-65.603
-64.621
-63.557
-62.428
-61.246
-60.025
-58.78
-57.524
-56.268
-55.025
-53.805
-52.618
-51.475
-50.384
-49.352
-48.387
-47.495
-46.682
-45.954
-45.314
-44.766
-44.314
-43.959
-43.701
-43.54
-43.474
-43.5
-43.614
-43.811
-44.086
-44.431
-44.842
-45.312
-45.833
-46.4
-47.005
-47.642
-48.301
-48.973
-49.647
-50.311
-50.955
-51.567
-52.134
-52.644
-53.086
-53.452
-53.731
-53.915
-53.992
-53.947
-53.771
-53.459
-53.007
-52.416
-51.692
-50.839
-49.868
-48.802
-47.661
-46.465
-45.233
-43.97
-42.683
-41.381
-40.075
-38.777
-37.493
-36.212
-34.915
-33.591
-32.223
-30.796
-29.289
-27.656
-25.862
-23.888
-21.719
-19.37
-16.864
-14.219
-11.453
-8.602
-5.711
-2.862
-0.156
2.327
4.506
6.307
7.649
8.431
8.573
8.035
6.8
4.888
2.334
-0.837
-4.591
-8.861
-13.561
-18.562
-23.698
-28.834
-33.85
-38.625
-43.049
-47.013
-50.457
-53.376
-55.826
-57.87
-59.553
-60.934
-62.105
-63.199
-64.384
-65.867
-67.826
-70.482
-74.12
-78.839
-84.555
-90.97
-97.488
-103.532
-108.735
-112.554
-114.294
-113.831
-111.495
-108.217
-105.658
-104.955
-106.466
-110.755
-118.502
-129.306
-141.747
-152.995
-158.97
-156.631
-143.847
-118.065
-76.521
-17.372
58.147
144.987
237.393
330.702
424.479
521.781
619.961
711.555
782.86
814.565
796.914
730.362
626.091
505.669
385.1
272.613
170.161
73.917
-15.247
-92.122
-152.356
-192.487
-212.95
-217.436
-209.332
-192.137
-170.349
-148.392
-129.404
-115.199
-106.123
-101.434
-100.424
-102.26
-105.199
-107.177
-106.931
-103.991
-98.593
-91.514
-83.407
-74.766
-66.353
-59.053
-53.378
-49.503
-47.308
-46.399
-46.463
-47.308
-48.701
-50.384
-52.142
-53.765
-55.084
-56.013
-56.449
-56.313
-55.566
-54.169
-52.124
-49.485
-46.337
-42.79
-38.942
-34.843
-30.504
-25.941
-21.186
-16.291
-11.315
-6.301
-1.281
3.727
8.703
13.628
18.501
23.349
28.224
33.19
38.284
43.506
48.825
54.216
59.665
65.165
70.712
76.286
81.872
87.458
93.049
98.646
104.241
109.811
115.322
120.735
126.026
131.185
136.211
141.101
145.844
150.429
154.846
159.09
163.153
167.015
170.651
174.034
177.144
179.964
182.481
184.684
186.556
188.082
189.247
190.039
190.446
190.459
190.065
189.257
188.027
186.375
184.301
181.808
178.902
175.587
171.872
167.766
163.281
158.431
153.229
147.69
141.833
135.677
129.243
122.554
115.633
108.505
101.196
93.734
86.145
78.456
70.696
62.891
55.07
47.26
39.487
31.778
24.157
16.649
9.277
2.063
-4.972
-11.808
-18.429
-24.818
-30.961
-36.845
-42.46
-47.796
-52.848
-57.607
-62.072
-66.238
-70.106
-73.676
-76.951
-79.936
-82.636
-85.056
-87.207
-89.096
-90.735
-92.133
-93.303
-94.257
-95.009
-95.572
-95.96
-96.188
-96.27
-96.22
-96.054
-95.785
-95.428
-94.995
-94.5
-93.955
-93.371
-92.762
-92.136
-91.504
-90.875
-90.258
-89.659
-89.085
-88.541
-88.032
-87.561
-87.13
-86.741
-86.395
-86.093
-85.835
-85.618
-85.442
-85.303
-85.2
-85.128
-85.083
-85.058
-85.048
-85.047
-85.049
-85.047
-85.032
-84.999
-84.942
-84.856
-84.733
-84.566
-84.351
-84.082
-83.752
-83.356
-82.885
-82.332
-81.692
-80.96
-80.135
-79.213
-78.192
-77.07
-75.849
-74.533
-73.123
-71.62
-70.022
-68.324
-66.53
-64.652
-62.707
-60.711
-58.68
-56.628
-54.578
-52.557
-50.585
-48.674
-46.821
-45.02
-43.275
-41.601
-40.02
-38.559
-37.23
-36.033
-34.968
-34.036
-33.243
-32.586
-32.043
-31.58
-31.184
-30.869
-30.683
-30.683
-30.904
-31.367
-32.077
-33.043
-34.278
-35.796
-37.596
-39.653
-41.946
-44.462
-47.216
-50.24
-53.529
-57.034
-60.658
-64.284
-67.817
-71.178
-74.299
-77.11
-79.562
-81.639
-83.367
-84.822
-86.064
-87.123
-88.026
-88.804
-89.538
-90.365
-91.473
-93.027
-95.249
-98.437
-102.699
-107.956
-113.921
-119.993
-125.596
-130.362
-133.752
-135.074
-134.246
-131.691
-128.384
-126.08
-126.006
-128.513
-134.155
-143.494
-155.9
-169.885
-182.659
-189.925
-188.396
-176.021
-150.392
-109.393
-52.08
21.657
109.415
206.677
308.723
409.865
505.296
590.812
663.559
723.605
766.817
786.998
778.901
734.491
655.79
551.044
423.484
283.124
138.401
-1.874
-116.753
-193.589
-230.099
-232.126
-218.458
-202.731
-189.327
-178.03
-164.099
-146.893
-129.393
-114.432
-104.863
-100.805
-100.78
-103.491
-106.813
-108.775
-108.518
-105.694
-100.632
-94.222
-87.142
-79.933
-73.335
-68.091
-64.635
-63.151
-63.51
-65.329
-68.258
-71.977
-76.158
-80.496
-84.721
-88.612
-91.994
-94.744
-96.771
-98.011
-98.418
-97.959
-96.61
-94.346
-91.193
-87.218
-82.511
-77.195
-71.369
-65.113
-58.523
-51.691
-44.705
-37.648
-30.567
-23.48
-16.41
-9.38
-2.415
4.455
11.222
17.896
24.492
31.027
37.515
43.96
50.373
56.767
63.151
69.526
75.885
82.209
88.484
94.7
100.845
106.912
112.887
118.752
124.492
130.09
135.532
140.8
145.879
150.748
155.391
159.792
163.937
167.813
171.407
174.704
177.691
180.354
182.683
184.663
186.285
187.536
188.407
188.889
188.976
188.662
187.944
186.818
185.284
183.342
180.994
178.245
175.1
171.566
167.653
163.371
158.735
153.758
148.456
142.848
136.952
130.79
124.382
117.753
110.925
103.923
96.773
89.499
82.129
74.687
67.199
59.693
52.193
44.725
37.313
29.981
22.754
15.652
8.697
1.91
-4.692
-11.091
-17.27
-23.216
-28.916
-34.359
-39.535
-44.436
-49.057
-53.395
-57.445
-61.207
-64.683
-67.874
-70.784
-73.418
-75.782
-77.884
-79.731
-81.333
-82.7
-83.842
-84.771
-85.499
-86.038
-86.401
-86.602
-86.652
-86.568
-86.361
-86.047
-85.639
-85.151
-84.596
-83.987
-83.338
-82.659
-81.963
-81.259
-80.559
-79.871
-79.203
-78.565
-77.962
-77.401
-76.887
-76.426
-76.021
-75.676
-75.394
-75.177
-75.025
-74.941
-74.924
-74.975
-75.092
-75.275
-75.521
-75.827
-76.191
-76.606
-77.067
-77.568
-78.102
-78.661
-79.239
-79.828
-80.42
-81.009
-81.59
-82.154
-82.697
-83.209
-83.683
-84.111
-84.485
-84.794
-85.03
-85.182
-85.242
-85.201
-85.052
-84.788
-84.401
-83.883
-83.221
-82.408
-81.442
-80.324
-79.057
-77.649
-76.11
-74.458
-72.718
-70.912
-69.064
-67.191
-65.31
-63.434
-61.576
-59.751
-57.976
-56.26
-54.596
-52.973
-51.371
-49.765
-48.133
-46.441
-44.644
-42.705
-40.6
-38.314
-35.849
-33.215
-30.432
-27.521
-24.507
-21.434
-18.368
-15.396
-12.626
-10.168
-8.115
-6.572
-5.652
-5.443
-6.011
-7.397
-9.596
-12.59
-16.348
-20.823
-25.97
-31.713
-37.938
-44.504
-51.224
-57.918
-64.437
-70.623
-76.33
-81.464
-85.95
-89.762
-92.938
-95.499
-97.495
-99.02
-100.165
-101.073
-101.928
-102.894
-104.249
-106.355
-109.394
-113.378
-118.084
-122.951
-127.483
-131.358
-134.1
-135.124
-134.153
-131.376
-127.771
-125.088
-124.739
-127.424
-133.489
-143.181
-156.405
-172.057
-187.518
-198.761
-201.884
-194.116
-173.518
-138.272
-86.845
-18.867
64.358
159.054
260.688
364.611
465.042
557.287
637.197
702.37
753.664
789.041
803.603
790.787
742.342
657.157
540.4
400.956
253.363
112.41
-7.133
-94.078
-145.89
-168.891
-175.934
-176.524
-175.357
-172.018
-162.358
-147.611
-131.278
-116.308
-106.51
-102.548
-102.784
-106.243
-111.097
-114.787
-116.191
-114.823
-110.479
-103.939
-96.028
-87.259
-78.494
-70.77
-64.622
-60.291
-57.795
-56.769
-56.929
-58.089
-59.955
-62.232
-64.681
-67.089
-69.301
-71.222
-72.725
-73.663
-73.937
-73.477
-72.261
-70.309
-67.652
-64.336
-60.423
-55.985
-51.097
-45.823
-40.23
-34.377
-28.328
-22.152
-15.912
-9.67
-3.468
2.662
8.704
14.654
20.515
26.297
32.013
37.679
43.306
48.902
54.472
60.017
65.541
71.048
76.542
82.022
87.489
92.938
98.364
103.758
109.11
114.407
119.636
124.781
129.829
134.765
139.576
144.248
148.767
153.117
157.282
161.247
164.995
168.509
171.771
174.763
177.468
179.869
181.951
183.699
185.096
186.132
186.793
187.068
186.949
186.427
185.496
184.152
182.391
180.213
177.619
174.613
171.198
167.383
163.177
158.59
153.637
148.331
142.689
136.73
130.473
123.94
117.154
110.139
102.92
95.525
87.98
80.314
72.555
64.731
56.873
49.007
41.164
33.369
25.651
18.036
10.548
3.213
-3.948
-10.911
-17.658
-24.171
-30.432
-36.426
-42.141
-47.564
-52.686
-57.499
-61.997
-66.175
-70.03
-73.562
-76.771
-79.661
-82.234
-84.497
-86.457
-88.122
-89.503
-90.609
-91.454
-92.048
-92.407
-92.544
-92.474
-92.213
-91.776
-91.18
-90.439
-89.571
-88.59
-87.512
-86.352
-85.125
-83.845
-82.526
-81.18
-79.821
-78.462
-77.113
-75.788
-74.495
-73.245
-72.047
-70.908
-69.836
-68.836
-67.914
-67.073
-66.318
-65.652
-65.075
-64.592
-64.201
-63.902
-63.696
-63.58
-63.552
-63.608
-63.744
-63.958
-64.243
-64.595
-65.01
-65.482
-66.006
-66.576
-67.185
-67.826
-68.491
-69.173
-69.861
-70.547
-71.22
-71.871
-72.49
-73.068
-73.597
-74.07
-74.478
-74.815
-75.075
-75.25
-75.332
-75.313
-75.183
-74.934
-74.557
-74.045
-73.39
-72.589
-71.636
-70.531
-69.273
-67.862
-66.296
-64.572
-62.685
-60.633
-58.419
-56.051
-53.541
-50.907
-48.173
-45.369
-42.525
-39.667
-36.816
-33.986
-31.18
-28.403
-25.656
-22.948
-20.296
-17.717
-15.225
-12.829
-10.538
-8.344
-6.237
-4.196
-2.191
-0.207
1.757
3.689
5.553
7.304
8.879
10.224
11.296
12.06
12.486
12.543
12.207
11.448
10.247
8.588
6.44
3.795
0.66
-2.941
-6.948
-11.274
-15.808
-20.432
-25.034
-29.518
-33.797
-37.792
-41.445
-44.721
-47.641
-50.254
-52.601
-54.72
-56.632
-58.386
-60.098
-61.921
-64.043
-66.671
-69.944
-74.06
-79.304
-85.737
-93.195
-101.269
-109.171
-116.178
-121.901
-125.77
-127.065
-125.717
-122.115
-117.3
-113.213
-111.179
-111.545
-114.847
-121.66
-131.344
-142.353
-151.73
-154.848
-148.216
-129.908
-97.558
-48.601
18.16
102.64
201.178
306.334
412.167
515.19
614.586
710.681
799.827
872.728
915.617
916.48
870.391
781.553
662.158
524.612
379.244
234.774
99.632
-15.515
-102.477
-159.329
-191.672
-208.831
-217.371
-219.175
-212.214
-195.803
-173.031
-148.94
-128.441
-113.619
-104.156
-99.026
-96.899
-96.479
-96.269
-94.467
-90.111
-83.247
-74.378
-64.33
-53.824
-43.421
-33.882
-26.072
-20.486
-17.233
-16.155
-16.862
-19.02
-22.387
-26.638
-31.426
-36.409
-41.258
-45.728
-49.663
-52.94
-55.461
-57.144
-57.896
-57.657
-56.414
-54.194
-51.057
-47.07
-42.298
-36.822
-30.748
-24.214
-17.376
-10.365
-3.281
3.81
10.863
17.832
24.674
31.355
37.867
44.212
50.401
56.438
62.319
68.052
73.656
79.163
84.614
90.035
95.439
100.831
106.214
111.585
116.942
122.276
127.568
132.802
137.962
143.037
148.017
152.89
157.64
162.249
166.695
170.962
175.033
178.891
182.519
185.9
189.017
191.857
194.408
196.656
198.587
200.186
201.439
202.332
202.854
202.992
202.736
202.076
201.007
199.522
197.619
195.296
192.555
189.396
185.825
181.848
177.473
172.709
167.567
162.062
156.208
150.021
143.52
136.726
129.658
122.34
114.797
107.052
99.133
91.065
82.877
74.596
66.25
57.868
49.478
41.109
32.788
24.542
16.398
8.382
0.518
-7.171
-14.665
-21.942
-28.986
-35.777
-42.303
-48.548
-54.502
-60.154
-65.497
-70.523
-75.227
-79.608
-83.663
-87.394
-90.8
-93.888
-96.66
-99.123
-101.286
-103.157
-104.746
-106.065
-107.126
-107.942
-108.526
-108.895
-109.061
-109.041
-108.85
-108.503
-108.016
-107.403
-106.679
-105.86
-104.96
-103.991
-102.968
-101.904
-100.81
-99.698
-98.578
-97.461
-96.357
-95.273
-94.218
-93.199
-92.223
-91.297
-90.426
-89.615
-88.868
-88.188
-87.579
-87.042
-86.579
-86.19
-85.875
-85.633
-85.464
-85.367
-85.339
-85.38
-85.486
-85.656
-85.888
-86.179
-86.527
-86.928
-87.381
-87.882
-88.429
-89.019
-89.648
-90.314
-91.013
-91.743
-92.499
-93.277
-94.074
-94.883
-95.699
-96.515
-97.325
-98.122
-98.9
-99.652
-100.374
-101.058
-101.701
-102.298
-102.845
-103.337
-103.769
-104.135
-104.428
-104.641
-104.766
-104.795
-104.72
-104.533
-104.225
-103.792
-103.228
-102.526
-101.679
-100.676
-99.51
-98.181
-96.689
-95.039
-93.24
-91.302
-89.241
-87.082
-84.85
-82.569
-80.262
-77.937
-75.604
-73.275
-70.963
-68.684
-66.446
-64.24
-62.051
-59.869
-57.681
-55.473
-53.227
-50.897
-48.451
-45.871
-43.145
-40.29
-37.33
-34.286
-31.181
-28.053
-24.951
-21.95
-19.149
-16.624
-14.449
-12.701
-11.456
-10.818
-10.868
-11.65
-13.18
-15.444
-18.409
-22.045
-26.311
-31.137
-36.429
-42.066
-47.894
-53.78
-59.597
-65.215
-70.509
-75.35
-79.641
-83.358
-86.52
-89.176
-91.377
-93.156
-94.577
-95.749
-96.828
-98.003
-99.47
-101.385
-103.945
