ecg
-208.878
-204.59599999999998
-193.797
-178.72799999999998
-161.621
-144.178
-127.14399999999999
-110.789
-95.235
-80.85
-68.493
-58.537
-50.684
-44.638000000000005
-40.341
-37.774
-36.918
-37.211
-37.366
-36.561
-34.609
-31.533
-27.546999999999997
-22.846
-17.521
-12.023
-7.22
-3.668
-1.5719999999999998
-0.927
-1.4569999999999999
-2.897
-5.065
-7.662999999999999
-10.283
-12.63
-14.501
-15.753
-16.358
-16.301
-15.554
-14.134
-12.082
-9.425
-6.192
-2.431
1.82
6.501
11.545
16.905
22.546
28.421
34.485
40.672
46.913000000000004
53.168
59.416000000000004
65.641
71.839
78.001
84.12
90.20700000000001
96.277
102.34100000000001
108.405
114.458
120.48100000000001
126.463
132.39600000000002
138.284
144.141
149.968
155.753
161.485
167.139
172.704
178.178
183.55599999999998
188.83
194.00400000000002
199.093
204.13099999999997
209.179
214.275
219.44099999999997
224.68
229.97
235.297
240.65599999999998
246.035
251.419
256.78
262.065
267.23
272.235
277.01
281.468
285.483
288.889
291.555
293.388
294.317
294.305
293.306
291.267
288.154
283.95099999999996
278.652
272.26599999999996
264.785
256.194
246.52599999999998
235.856
224.30900000000003
212.06
199.25
185.989
172.37599999999998
158.498
144.458
130.37
116.32799999999999
102.413
88.71799999999999
75.34899999999999
62.446000000000005
50.161
38.591
27.789
17.767
8.497
-0.027999999999999997
-7.8020000000000005
-14.829
-21.121
-26.704
-31.616999999999997
-35.879
-39.512
-42.566
-45.119
-47.292
-49.208999999999996
-50.955
-52.588
-54.141000000000005
-55.63399999999999
-57.092
-58.543
-59.994
-61.443000000000005
-62.888000000000005
-64.325
-65.766
-67.217
-68.663
-70.068
-71.375
-72.531
-73.506
-74.285
-74.859
-75.22800000000001
-75.39
-75.354
-75.14
-74.775
-74.28
-73.671
-72.959
-72.155
-71.282
-70.368
-69.447
-68.545
-67.682
-66.873
-66.12899999999999
-65.461
-64.875
-64.373
-63.948
-63.593999999999994
-63.308
-63.09
-62.93899999999999
-62.854
-62.832
-62.867
-62.956
-63.093999999999994
-63.28
-63.50899999999999
-63.777
-64.082
-64.421
-64.792
-65.193
-65.624
-66.082
-66.562
-67.062
-67.578
-68.107
-68.645
-69.19
-69.737
-70.28399999999999
-70.829
-71.369
-71.903
-72.429
-72.945
-73.449
-73.941
-74.419
-74.882
-75.329
-75.758
-76.168
-76.559
-76.92699999999999
-77.273
-77.594
-77.888
-78.154
-78.391
-78.597
-78.77
-78.91
-79.014
-79.083
-79.11399999999999
-79.108
-79.062
-78.976
-78.84899999999999
-78.68
-78.468
-78.211
-77.908
-77.558
-77.15899999999999
-76.71
-76.21
-75.657
-75.04899999999999
-74.387
-73.667
-72.89
-72.055
-71.161
-70.207
-69.195
-68.126
-66.999
-65.818
-64.583
-63.299
-61.967
-60.592
-59.176
-57.723
-56.238
-54.726000000000006
-53.191
-51.638000000000005
-50.075
-48.50899999999999
-46.948
-45.402
-43.882
-42.398
-40.961000000000006
-39.586
-38.283
-37.064
-35.94
-34.92
-34.014
-33.234
-32.589
-32.093
-31.753
-31.579
-31.579
-31.759
-32.125
-32.679
-33.418
-34.339
-35.439
-36.721
-38.193000000000005
-39.866
-41.744
-43.832
-46.13
-48.631
-51.33
-54.207
-57.232
-60.37
-63.585
-66.83800000000001
-70.10300000000001
-73.346
-76.527
-79.597
-82.48899999999999
-85.13600000000001
-87.48
-89.47
-91.06700000000001
-92.25299999999999
-93.01899999999999
-93.384
-93.39299999999999
-93.11
-92.62200000000001
-92.03
-91.441
-90.977
-90.755
-90.925
-91.706
-93.264
-95.678
-98.89299999999999
-102.64200000000001
-106.566
-110.33200000000001
-113.522
-115.619
-116.26899999999999
-115.322
-113.02799999999999
-110.25299999999999
-108.071
-107.49799999999999
-109.50399999999999
-114.82799999999999
-123.73100000000001
-135.928
-150.207
-164.168
-174.75400000000002
-178.551
-172.215
-153.024
-118.669
-67.55199999999999
0.28300000000000003
83.305
177.588
276.60900000000004
375.241
469.398
555.9680000000001
634.778
700.7360000000001
744.7410000000001
759.398
736.6469999999999
677.5010000000001
592.754
492.782
389.43199999999996
290.01599999999996
194.83
105.677
24.635
-45.948
-102.051
-142.13
-167.273
-179.555
-182.011
-177.543
-168.505
-156.961
-144.584
-132.59799999999998
-121.398
-110.804
-100.455
-90.113
-79.869
-69.964
-60.692
-52.245
-44.949
-39.205
-35.308
-33.161
-32.174
-31.724
-31.212
-30.285
-28.811999999999998
-26.697
-23.945
-20.831
-17.902
-15.616
-14.327
-14.162
-14.998
-16.669
-18.951
-21.533
-24.035
-26.136
-27.616999999999997
-28.351999999999997
-28.318
-27.521
-25.979
-23.730999999999998
-20.842
-17.367
-13.344000000000001
-8.822000000000001
-3.845
1.5330000000000001
7.233
13.185
19.324
25.576
31.886
38.214
44.521
50.792
57.025
63.216
69.369
75.493
81.585
87.65
93.697
99.72399999999999
105.736
111.73100000000001
117.70200000000001
123.654
129.589
135.501
141.392
147.251
153.059
158.799
164.45
169.995
175.43
180.75400000000002
185.96599999999998
191.082
196.12400000000002
201.12400000000002
206.127
211.15900000000002
216.227
221.329
226.446
231.56599999999997
236.68400000000003
241.77900000000002
246.821
251.773
256.58099999999996
261.191
265.552
269.584
273.183
276.233
278.599
280.173
280.884
280.67
279.488
277.297
274.04200000000003
269.705
264.295
257.827
250.327
241.827
232.34099999999998
221.93400000000003
210.71
198.787
186.31400000000002
173.41299999999998
160.181
146.724
133.14600000000002
119.56
106.094
92.845
79.876
67.255
55.04600000000001
43.321999999999996
32.175
21.654
11.767000000000001
2.511
-6.136
-14.187999999999999
-21.644000000000002
-28.526999999999997
-34.878
-40.751
-46.216
-51.321999999999996
-56.089
-60.54600000000001
-64.725
-68.668
-72.436
-76.066
-79.562
-82.934
-86.18
-89.306
-92.32600000000001
-95.23
-97.992
-100.58
-102.95
-105.07799999999999
-106.96
-108.589
-109.95700000000001
-111.05799999999999
-111.87700000000001
-112.414
-112.68700000000001
-112.708
-112.492
-112.052
-111.397
-110.551
-109.546
-108.419
-107.20700000000001
-105.94200000000001
-104.64399999999999
-103.336
-102.037
-100.765
-99.537
-98.36200000000001
-97.245
-96.19200000000001
-95.21
-94.305
-93.486
-92.755
-92.11200000000001
-91.555
-91.08200000000001
-90.691
-90.38
-90.148
-89.991
-89.90799999999999
-89.895
-89.95299999999999
-90.08
-90.273
-90.529
-90.84200000000001
-91.209
-91.62200000000001
-92.07700000000001
-92.56700000000001
-93.086
-93.62799999999999
-94.18700000000001
-94.756
-95.33200000000001
-95.90799999999999
-96.48
-97.04299999999999
-97.59200000000001
-98.12299999999999
-98.631
-99.111
-99.56200000000001
-99.978
-100.35600000000001
-100.694
-100.988
-101.236
-101.436
-101.586
-101.68299999999999
-101.727
-101.715
-101.647
-101.52
-101.335
-101.09
-100.78399999999999
-100.416
-99.986
-99.494
-98.939
-98.322
-97.64200000000001
-96.898
-96.09
-95.21700000000001
-94.279
-93.275
-92.205
-91.06700000000001
-89.86200000000001
-88.589
-87.249
-85.84200000000001
-84.369
-82.83200000000001
-81.233
-79.57300000000001
-77.85300000000001
-76.077
-74.24600000000001
-72.365
-70.436
-68.465
-66.456
-64.415
-62.35
-60.27
-58.184
-56.103
-54.034
-51.99
-49.982
-48.025
-46.133
-44.317
-42.59
-40.963
-39.451
-38.068000000000005
-36.828
-35.74
-34.809
-34.045
-33.454
-33.046
-32.830999999999996
-32.809
-32.978
-33.333
-33.874
-34.606
-35.539
-36.673
-38.008
-39.539
-41.25899999999999
-43.166000000000004
-45.258
-47.50899999999999
-49.896
-52.376999999999995
-54.903
-57.45
-59.99100000000001
-62.50899999999999
-64.999
-67.413
-69.687
-71.76
-73.56
-75.05
-76.243
-77.11
-77.596
-77.73899999999999
-77.63
-77.507
-77.765
-78.611
-80.062
-82.089
-84.656
-87.76
-91.366
-95.053
-97.95
-99.387
-99.11
-97.22399999999999
-94.05799999999999
-89.745
-84.38
-78.565
-73.69800000000001
-71.32300000000001
-72.44
-77.398
-85.94
-97.77600000000001
-112.648
-129.68
-146.782
-161.017
-169.532
-169.771
-159.751
-137.769
-101.965
-51.178000000000004
14.302
92.714
181.248
276.32099999999997
373.986
469.81699999999995
558.516
634.798
693.7639999999999
731.671
746.45
736.882
703.988
650.192
577.658
490.714
392.712
286.716
180.68200000000002
81.26100000000001
-4.3580000000000005
-68.92399999999999
-114.321
-143.526
-160.048
-169.40099999999998
-170.882
-164.18400000000003
-151.381
-133.57299999999998
-114.137
-95.741
-78.77199999999999
-63.851000000000006
-51.67
-42.549
-36.641999999999996
-33.595
-32.537
-32.891
-34.41
-36.607
-38.545
-39.294000000000004
-38.318000000000005
-35.473
-31.031999999999996
-25.345
-18.656
-11.433
-4.457
1.6030000000000002
6.352
9.629
11.55
12.333
12.147
11.285
10.171
9.099
8.236
7.656000000000001
7.32
7.204
7.341
7.7410000000000005
8.394
9.314
10.533
12.107999999999999
14.102
16.533
19.379
22.6
26.15
30.013
34.183
38.659
43.437
48.50899999999999
53.861000000000004
59.483000000000004
65.361
71.467
77.765
84.199
90.72399999999999
97.311
103.943
110.613
117.315
124.025
130.718
137.374
143.976
150.511
156.97
163.333
169.581
175.69799999999998
181.676
187.523
193.25400000000002
198.875
204.392
209.815
215.162
220.47299999999998
225.792
231.145
236.53599999999997
241.957
247.387
252.813
258.23
263.622
268.965
274.218
279.325
284.24
288.914
293.272
297.216
300.61400000000003
303.323
305.237
306.282
306.406
305.575
303.745
300.873
296.931
291.913
285.819
278.651
270.408
261.091
250.74599999999998
239.467
227.388
214.65900000000002
201.398
187.69799999999998
173.64700000000002
159.336
144.865
130.335
115.839
101.454
87.28
73.437
60.05
47.245
35.1
23.643
12.874
2.784
-6.625
-15.343
-23.374000000000002
-30.74
-37.466
-43.578
-49.105
-54.07899999999999
-58.567
-62.668
-66.484
-70.113
-73.623
-77.053
-80.429
-83.77600000000001
-87.117
-90.46799999999999
-93.835
-97.21
-100.59
-103.979
-107.374
-110.76700000000001
-114.125
-117.395
-120.529
-123.491
-126.255
-128.811
-131.153
-133.275
-135.181
-136.886
-138.406
-139.763
-140.971
-142.04
-142.983
-143.819
-144.572
-145.274
-145.94899999999998
-146.61700000000002
-147.292
-147.984
-148.704
-149.459
-150.248
-151.06799999999998
-151.91299999999998
-152.78
-153.668
-154.575
-155.502
-156.444
-157.39700000000002
-158.357
-159.322
-160.289
-161.256
-162.222
-163.184
-164.142
-165.095
-166.045
-166.99
-167.93200000000002
-168.86700000000002
-169.794
-170.713
-171.62
-172.514
-173.392
-174.252
-175.09099999999998
-175.90599999999998
-176.696
-177.458
-178.188
-178.885
-179.545
-180.166
-180.745
-181.27900000000002
-181.764
-182.19799999999998
-182.576
-182.89700000000002
-183.15400000000002
-183.34400000000002
-183.46200000000002
-183.505
-183.46599999999998
-183.342
-183.12900000000002
-182.821
-182.41299999999998
-181.90200000000002
-181.282
-180.549
-179.7
-178.729
-177.635
-176.41299999999998
-175.063
-173.583
-171.97299999999998
-170.232
-168.364
-166.368
-164.24900000000002
-162.01
-159.653
-157.184
-154.609
-151.935
-149.17
-146.321
-143.399
-140.416
-137.386
-134.32299999999998
-131.24200000000002
-128.156
-125.084
-122.041
-119.04899999999999
-116.126
-113.291
-110.56299999999999
-107.96
-105.50299999999999
-103.21
-101.102
-99.191
-97.491
-96.012
-94.762
-93.75399999999999
-92.99799999999999
-92.49700000000001
-92.25200000000001
-92.258
-92.512
-93.016
-93.771
-94.777
-96.02600000000001
-97.512
-99.225
-101.15799999999999
-103.303
-105.64
-108.14399999999999
-110.777
-113.492
-116.257
-119.041
-121.822
-124.589
-127.307
-129.91899999999998
-132.369
-134.59
-136.52200000000002
-138.153
-139.44899999999998
-140.34
-140.855
-141.084
-141.202
-141.558
-142.451
-143.96200000000002
-146.127
-148.971
-152.34
-156.04399999999998
-159.726
-162.53
-163.579
-162.475
-159.045
-153.387
-146.013
-137.376
-128.093
-119.665
-113.875
-111.96700000000001
-114.906
-122.956
-135.464
-151.85299999999998
-171.21099999999998
-191.33700000000002
-209.269
-221.918
-225.889
-218.542
-198.41099999999997
-163.621
-112.73200000000001
-45.981
35.422
128.014
225.8
324.671
421.647
513.804
600.839
677.576
734.454
763.855
757.645
715.329
646.617
561.453
469.023
375.539
279.317
179.255
80.92699999999999
-9.995
-85.054
-137.108
-169.643
-186.919
-193.545
-195.104
-190.571
-179.675
-164.252
-144.839
-124.36200000000001
-105.103
-87.399
-72.423
-60.845
-52.43600000000001
-47.119
-44.4
-43.351000000000006
-43.479
-44.306999999999995
-44.825
-44.18600000000001
-42.018
-38.157
-32.858000000000004
-26.703000000000003
-20.078
-13.457
-7.614
-3.0869999999999997
-0.134
1.129
0.873
-0.593
-3.0239999999999996
-6.068
-9.256
-12.277000000000001
-14.918
-17.019000000000002
-18.515
-19.34
-19.416
-18.739
-17.352999999999998
-15.284
-12.559000000000001
-9.2
-5.223
-0.6890000000000001
4.323
9.736
15.482999999999999
21.509
27.766
34.191
40.707
47.251000000000005
53.782
60.276
66.721
73.105
79.42
85.667
91.866
98.039
104.204
110.37200000000001
116.545
122.72200000000001
128.905
135.092
141.27700000000002
147.454
153.61
159.736
165.82299999999998
171.86
177.825
183.69299999999998
189.43099999999998
195.02
200.449
205.71599999999998
210.822
215.77599999999998
220.59900000000002
225.327
230.00799999999998
234.672
239.331
243.982
248.615
253.225
257.808
262.362
266.871
271.306
275.631
279.8
283.756
287.418
290.677
293.39599999999996
295.44
296.699
297.093
296.561
295.045
292.491
288.851
284.085
278.16700000000003
271.084
262.82099999999997
253.386
242.82299999999998
231.209
218.666
205.34900000000002
191.41
176.984
162.203
147.185
132.054
116.94200000000001
101.971
87.26899999999999
72.97399999999999
59.218
46.14
33.858000000000004
22.44
11.929
2.333
-6.372000000000001
-14.205
-21.191
-27.368000000000002
-32.771
-37.442
-41.437
-44.809
-47.63399999999999
-50.013999999999996
-52.05
-53.846000000000004
-55.492
-57.044
-58.545
-60.025
-61.496
-62.967
-64.442
-65.91
-67.365
-68.807
-70.221
-71.596
-72.903
-74.093
-75.12100000000001
-75.953
-76.561
-76.936
-77.074
-76.973
-76.645
-76.11
-75.388
-74.506
-73.487
-72.347
-71.107
-69.793
-68.431
-67.061
-65.711
-64.406
-63.163999999999994
-62.001000000000005
-60.927
-59.953
-59.082
-58.31
-57.635
-57.053999999999995
-56.565
-56.169
-55.861999999999995
-55.641999999999996
-55.503
-55.43899999999999
-55.443999999999996
-55.516000000000005
-55.648999999999994
-55.839
-56.083
-56.375
-56.713
-57.096000000000004
-57.522
-57.986000000000004
-58.483999999999995
-59.012
-59.566
-60.141000000000005
-60.733000000000004
-61.338
-61.95
-62.568000000000005
-63.187
-63.805
-64.42
-65.03
-65.632
-66.225
-66.809
-67.383
-67.947
-68.5
-69.043
-69.575
-70.098
-70.611
-71.117
-71.61399999999999
-72.105
-72.58800000000001
-73.065
-73.536
-74.001
-74.46
-74.913
-75.358
-75.797
-76.227
-76.649
-77.06
-77.46
-77.847
-78.219
-78.57600000000001
-78.914
-79.23
-79.523
-79.789
-80.024
-80.225
-80.387
-80.508
-80.581
-80.604
-80.571
-80.47800000000001
-80.32
-80.093
-79.793
-79.413
-78.95
-78.40100000000001
-77.76
-77.025
-76.194
-75.264
-74.234
-73.10300000000001
-71.872
-70.542
-69.113
-67.58800000000001
-65.969
-64.259
-62.464
-60.589
-58.638999999999996
-56.623000000000005
-54.547
-52.423
-50.263000000000005
-48.07899999999999
-45.885
-43.693000000000005
-41.518
-39.376
-37.284
-35.260999999999996
-33.321999999999996
-31.483
-29.76
-28.171
-26.732
-25.463
-24.378
-23.491
-22.811
-22.35
-22.116999999999997
-22.125
-22.379
-22.881999999999998
-23.63
-24.62
-25.86
-27.357
-29.113000000000003
-31.13
-33.4
-35.911
-38.650999999999996
-41.608000000000004
-44.756
-48.065
-51.497
-55.006
-58.553000000000004
-62.103
-65.631
-69.119
-72.531
-75.813
-78.898
-81.707
-84.19
-86.336
-88.15799999999999
-89.65700000000001
-90.814
-91.65100000000001
-92.305
-93.051
-94.163
-95.79799999999999
-97.905
-100.361
-103.26299999999999
-106.74799999999999
-110.71700000000001
-114.736
-118.08200000000001
-120.126
-120.774
-120.289
-118.609
-115.52
-111.053
-105.728
-100.87700000000001
-98.037
-98.04299999999999
-101.05
-107.13799999999999
-116.398
-128.637
-142.953
-157.075
-167.851
-172.252
-167.69799999999998
-152.069
-123.406
-80.032
-21.19
52.254
137.829
231.921
330.265
428.444
521.531
604.161
671.25
718.5260000000001
743.0369999999999
743.4760000000001
719.872
673.279
606.189
522.514
427.251
326.086
224.62099999999998
127.745
39.643
-36.224000000000004
-97.447
-142.912
-173.111
-189.71200000000002
-194.878
-190.804
-179.542
-163.285
-144.399
-124.84100000000001
-105.56
-86.976
-69.337
-53.143
-39.408
-28.651999999999997
-20.613000000000003
-14.913
-11.443
-10.146
-10.965
-13.284
-15.700999999999999
-17.27
-17.732
-17.065
-15.42
-12.944
-9.686
-6.059
-2.95
-0.919
-0.149
-0.616
-2.012
-4.033
-6.4670000000000005
-8.994
-11.175999999999998
-12.724
-13.470999999999998
-13.315
-12.309000000000001
-10.501
-7.9110000000000005
-4.604
-0.662
3.855
8.884
14.347000000000001
20.177
26.281999999999996
32.552
38.915
45.313
51.7
58.044
64.311
70.477
76.541
82.51299999999999
88.397
94.197
99.914
105.556
111.15100000000001
116.729
122.316
127.939
133.612
139.34
145.126
150.96
156.822
162.69
168.541
174.35299999999998
180.11700000000002
185.81799999999998
191.438
196.957
202.343
207.577
212.653
217.565
222.31
226.89700000000002
231.34
235.67700000000002
239.965
244.243
248.52900000000002
252.828
257.123
261.408
265.681
269.935
274.165
278.346
282.437
286.402
290.199
293.757
296.98400000000004
299.753
301.906
303.324
303.921
303.628
302.401
300.188
296.93
292.591
287.13599999999997
280.54200000000003
272.8
263.889
253.81099999999998
242.62400000000002
230.41400000000002
217.321
203.518
189.144
174.322
159.175
143.812
128.35299999999998
112.93299999999999
97.664
82.66799999999999
68.08800000000001
54.059
40.73
28.224
16.605
5.9110000000000005
-3.858
-12.735
-20.737
-27.881
-34.209
-39.751
-44.549
-48.66
-52.13399999999999
-55.044
-57.498999999999995
-59.606
-61.475
-63.203
-64.847
-66.45100000000001
-68.045
-69.64
-71.247
-72.869
-74.497
-76.123
-77.75
-79.36399999999999
-80.954
-82.495
-83.932
-85.223
-86.329
-87.22200000000001
-87.89
-88.331
-88.541
-88.531
-88.32
-87.93
-87.387
-86.714
-85.925
-85.041
-84.083
-83.079
-82.065
-81.07
-80.11399999999999
-79.21600000000001
-78.388
-77.641
-76.983
-76.416
-75.934
-75.535
-75.21300000000001
-74.96600000000001
-74.793
-74.692
-74.657
-74.684
-74.765
-74.895
-75.071
-75.289
-75.543
-75.83
-76.146
-76.48899999999999
-76.859
-77.253
-77.668
-78.102
-78.551
-79.012
-79.484
-79.964
-80.449
-80.939
-81.431
-81.925
-82.421
-82.91799999999999
-83.416
-83.915
-84.414
-84.914
-85.416
-85.92
-86.426
-86.936
-87.449
-87.96700000000001
-88.49
-89.01700000000001
-89.54899999999999
-90.085
-90.62700000000001
-91.17299999999999
-91.72399999999999
-92.28
-92.839
-93.402
-93.969
-94.537
-95.10600000000001
-95.67299999999999
-96.238
-96.796
-97.346
-97.885
-98.40899999999999
-98.917
-99.40299999999999
-99.866
-100.301
-100.705
-101.075
-101.40700000000001
-101.697
-101.941
-102.137
-102.281
-102.369
-102.399
-102.366
-102.26899999999999
-102.104
-101.869
-101.56
-101.176
-100.714
-100.171
-99.544
-98.833
-98.03399999999999
-97.148
-96.17299999999999
-95.11
-93.959
-92.72200000000001
-91.40100000000001
-89.99700000000001
-88.514
-86.956
-85.325
-83.62700000000001
-81.867
-80.04899999999999
-78.181
-76.26899999999999
-74.32
-72.343
-70.34899999999999
-68.347
-66.34899999999999
-64.368
-62.417
-60.50899999999999
-58.658
-56.879
-55.184
-53.586000000000006
-52.096000000000004
-50.727
-49.494
-48.41
-47.488
-46.742
-46.183
-45.818999999999996
-45.661
-45.716
-45.985
-46.468
-47.166000000000004
-48.081
-49.224
-50.605
-52.233000000000004
-54.114
-56.25
-58.635
-61.261
-64.111
-67.154
-70.358
-73.683
-77.09
-80.547
-84.023
-87.48
-90.87299999999999
-94.13600000000001
-97.20100000000001
-100.007
-102.493
-104.618
-106.365
-107.725
-108.71600000000001
-109.396
-109.816
-110.05
-110.20200000000001
-110.359
-110.63799999999999
-111.169
-112.051
-113.459
-115.62200000000001
-118.685
-122.7
-127.541
-132.825
-138.141
-143.136
-147.334
-150.218
-151.425
-150.809
-148.804
-146.453
-144.89700000000002
-145.10399999999998
-147.799
-153.47299999999998
-162.245
-173.662
-186.166
-197.04
-202.967
-200.63099999999997
-187.365
-160.822
-118.98700000000001
-60.744
13.635
101.26100000000001
196.68599999999998
294.24
389.664
481.475
569.898
652.5169999999999
721.967
766.079
773.313
738.745
667.85
574.972
473.17199999999997
371.85699999999997
273.126
173.368
75.63600000000001
-15.360999999999999
-92.89399999999999
-148.61700000000002
-184.477
-204.799
-214.209
-219.081
-219.44
-214.828
-206.308
-193.979
-180.32299999999998
-166.986
-153.505
-139.916
-125.95299999999999
-111.68
-98.3
-86.352
-75.721
-66.797
-60.042
-55.66
-53.771
-53.738
-54.135
-54.159
-53.618
-52.291000000000004
-50.158
-47.255
-43.538000000000004
-39.455
-35.911
-33.424
-32.141999999999996
-32.064
-32.916
-34.449
-36.555
-38.955
-41.221000000000004
-43.059
-44.248000000000005
-44.656000000000006
-44.32
-43.273999999999994
-41.51
-39.074
-36.016
-32.376
-28.229
-23.639
-18.651
-13.323
-7.6979999999999995
-1.807
4.3
10.573
16.95
23.365
29.778000000000002
36.17
42.526
48.841
55.111000000000004
61.333
67.517
73.681
79.839
85.994
92.14399999999999
98.273
104.366
110.417
116.426
122.40100000000001
128.34799999999998
134.25799999999998
140.12
145.914
151.619
157.225
162.726
168.11
173.372
178.519
183.571
188.57
193.562
198.578
203.625
208.695
213.769
218.84
223.90200000000002
228.947
233.957
238.89700000000002
243.725
248.407
252.893
257.107
260.95
264.281
266.959
268.879
269.964
270.158
269.415
267.68
264.904
261.05400000000003
256.108
250.055
242.887
234.585
225.16400000000002
214.687
203.253
191.014
178.11700000000002
164.679
150.808
136.608
122.181
107.646
93.116
78.69
64.479
50.61
37.211
24.426
12.357999999999999
1.061
-9.44
-19.158
-28.105999999999998
-36.281
-43.695
-50.37
-56.331
-61.614
-66.258
-70.297
-73.797
-76.85300000000001
-79.562
-82.02799999999999
-84.33
-86.51100000000001
-88.605
-90.63
-92.602
-94.53399999999999
-96.429
-98.279
-100.07700000000001
-101.823
-103.509
-105.12700000000001
-106.65
-108.025
-109.211
-110.169
-110.875
-111.323
-111.51
-111.435
-111.10799999999999
-110.54899999999999
-109.779
-108.82799999999999
-107.71600000000001
-106.462
-105.086
-103.61200000000001
-102.071
-100.50299999999999
-98.93799999999999
-97.402
-95.915
-94.494
-93.15299999999999
-91.904
-90.75299999999999
-89.698
-88.74
-87.87899999999999
-87.113
-86.447
-85.882
-85.414
-85.041
-84.758
-84.56200000000001
-84.45200000000001
-84.42200000000001
-84.47
-84.59
-84.781
-85.037
-85.35700000000001
-85.738
-86.17299999999999
-86.65899999999999
-87.18799999999999
-87.75399999999999
-88.352
-88.97399999999999
-89.615
-90.26799999999999
-90.927
-91.586
-92.24
-92.88600000000001
-93.51700000000001
-94.12899999999999
-94.719
-95.28299999999999
-95.81700000000001
-96.318
-96.78299999999999
-97.208
-97.59100000000001
-97.93
-98.22200000000001
-98.465
-98.65700000000001
-98.796
-98.881
-98.91
-98.883
-98.79899999999999
-98.65700000000001
-98.45700000000001
-98.199
-97.882
-97.506
-97.072
-96.57799999999999
-96.025
-95.413
-94.743
-94.01299999999999
-93.225
-92.37700000000001
-91.46799999999999
-90.5
-89.47
-88.37799999999999
-87.22399999999999
-86.006
-84.726
-83.383
-81.977
-80.509
-78.98100000000001
-77.392
-75.74600000000001
-74.043
-72.28699999999999
-70.479
-68.622
-66.721
-64.778
-62.799
-60.788000000000004
-58.751000000000005
-56.695
-54.628
-52.56100000000001
-50.504
-48.465
-46.458
-44.495
-42.589
-40.751
-38.993
-37.326
-35.760999999999996
-34.31
-32.985
-31.801
-30.769000000000002
-29.901999999999997
-29.211
-28.704
-28.393
-28.281999999999996
-28.375
-28.671999999999997
-29.173000000000002
-29.884
-30.815
-31.978
-33.381
-35.029
-36.924
-39.058
-41.422
-43.998999999999995
-46.754
-49.652
-52.655
-55.725
-58.835
-61.953
-65.043
-68.062
-70.946
-73.63
-76.062
-78.189
-79.97399999999999
-81.406
-82.48
-83.225
-83.706
-83.977
-84.11399999999999
-84.211
-84.346
-84.632
-85.193
-86.119
-87.57
-89.75200000000001
-92.78399999999999
-96.708
-101.395
-106.469
-111.53
-116.22399999999999
-120.09299999999999
-122.655
-123.56299999999999
-122.67399999999999
-120.38799999999999
-117.654
-115.529
-114.90899999999999
-116.431
-120.525
-127.318
-136.411
-146.418
-154.89
-158.739
-154.94299999999998
-141.168
-115.245
-75.304
-20.250999999999998
49.895
132.341
221.71400000000003
312.878
402.14300000000003
488.776
573.743
654.052
721.76
764.3860000000001
770.438
737.2339999999999
670.633
583.29
486.0
382.827
275.36
165.09599999999998
60.163999999999994
-27.076
-88.538
-123.141
-139.034
-147.10299999999998
-153.77100000000002
-160.116
-162.874
-159.668
-151.31799999999998
-140.351
-129.616
-120.044
-111.054
-102.02799999999999
-92.51
-82.63600000000001
-72.681
-62.722
-53.143
-44.54600000000001
-37.444
-32.241
-28.789
-26.403000000000002
-24.545
-22.755
-20.625999999999998
-17.983
-14.724
-10.814
-6.5729999999999995
-2.5789999999999997
0.755
3.109
4.341
4.553
3.88
2.489
0.662
-1.261
-3.032
-4.4719999999999995
-5.4639999999999995
-5.973
-5.954
-5.36
-4.186
-2.461
-0.20600000000000002
2.5580000000000003
5.803
9.509
13.632
18.113
22.909000000000002
27.989
33.326
38.904
44.696000000000005
50.656000000000006
56.74100000000001
62.9
69.09100000000001
75.292
81.484
87.661
93.821
99.96700000000001
106.105
112.245
118.391
124.538
130.673
136.767
142.803
148.77100000000002
154.674
160.52
166.31099999999998
172.03400000000002
177.673
183.207
188.625
193.923
199.09400000000002
204.13
209.03400000000002
213.821
218.53
223.21
227.891
232.581
237.268
241.933
246.565
251.157
255.703
260.183
264.563
268.801
272.862
276.70099999999996
280.248
283.402
286.028
287.986
289.175
289.527
288.997
287.545
285.124
281.692
277.222
271.702
265.129
257.491
248.768
238.975
228.169
216.457
203.993
190.928
177.378
163.444
149.216
134.796
120.29700000000001
105.822
91.464
77.319
63.5
50.155
37.44
25.468000000000004
14.305
3.971
-5.553
-14.275
-22.193
-29.311
-35.641999999999996
-41.215
-46.066
-50.221000000000004
-53.708
-56.57899999999999
-58.917
-60.849
-62.506
-63.982
-65.342
-66.626
-67.857
-69.064
-70.274
-71.499
-72.738
-73.99
-75.25399999999999
-76.543
-77.863
-79.202
-80.523
-81.767
-82.881
-83.83200000000001
-84.603
-85.186
-85.581
-85.78399999999999
-85.805
-85.664
-85.38799999999999
-84.999
-84.512
-83.936
-83.28299999999999
-82.574
-81.837
-81.105
-80.406
-79.756
-79.171
-78.661
-78.235
-77.898
-77.649
-77.47800000000001
-77.37899999999999
-77.346
-77.375
-77.46600000000001
-77.613
-77.812
-78.056
-78.33800000000001
-78.652
-78.99600000000001
-79.363
-79.748
-80.148
-80.558
-80.977
-81.403
-81.835
-82.26899999999999
-82.70299999999999
-83.134
-83.559
-83.977
-84.384
-84.779
-85.16
-85.527
-85.87899999999999
-86.21600000000001
-86.539
-86.84899999999999
-87.146
-87.432
-87.708
-87.977
-88.24
-88.5
-88.758
-89.016
-89.277
-89.542
-89.81200000000001
-90.089
-90.37299999999999
-90.665
-90.965
-91.275
-91.59299999999999
-91.921
-92.257
-92.6
-92.95100000000001
-93.30799999999999
-93.669
-94.03299999999999
-94.396
-94.757
-95.113
-95.459
-95.79299999999999
-96.109
-96.405
-96.67399999999999
-96.912
-97.115
-97.27600000000001
-97.39
-97.45299999999999
-97.45700000000001
-97.399
-97.271
-97.071
-96.792
-96.43
-95.98299999999999
-95.446
-94.81700000000001
-94.095
-93.277
-92.36399999999999
-91.355
-90.251
-89.052
-87.76100000000001
-86.381
-84.916
-83.37
-81.749
-80.059
-78.309
-76.51100000000001
-74.67399999999999
-72.811
-70.936
-69.062
-67.204
-65.378
-63.597
-61.875
-60.226000000000006
-58.663999999999994
-57.207
-55.869
-54.666000000000004
-53.613
-52.723
-52.00899999999999
-51.482
-51.151
-51.021
-51.093
-51.372
-51.861999999999995
-52.573
-53.519
-54.708
-56.147
-57.842
-59.788000000000004
-61.98
-64.403
-67.033
-69.837
-72.78399999999999
-75.83800000000001
-78.968
-82.146
-85.331
-88.478
-91.52799999999999
-94.413
-97.075
-99.455
-101.50299999999999
-103.196
-104.522
-105.491
-106.14200000000001
-106.51700000000001
-106.667
-106.678
-106.637
-106.649
-106.84299999999999
-107.32600000000001
-108.25
-109.84299999999999
-112.241
-115.495
-119.515
-123.959
-128.44799999999998
-132.66299999999998
-136.167
-138.471
-139.27700000000002
-138.447
-136.329
-133.899
-132.111
-131.817
-133.78799999999998
-138.477
-146.061
-156.264
-167.726
-177.99200000000002
-184.324
-183.703
-173.39700000000002
-151.351
-115.348
-63.812
3.083
83.89200000000001
175.106
270.921
367.211
460.74199999999996
548.356
629.594
699.45
749.112
771.503
758.5830000000001
710.198
635.347
543.322
444.843
346.68
249.267
154.105
63.757
-18.227999999999998
-86.819
-139.36
-175.717
-197.054
-205.265
-201.97799999999998
-189.551
-170.858
-148.718
-125.999
-104.602
-85.61399999999999
-70.331
-59.821999999999996
-54.16
-52.972
-55.403
-59.997
-65.766
-71.86399999999999
-76.958
-80.01100000000001
-80.525
-78.24600000000001
-73.423
-66.71
-58.592
-49.696999999999996
-40.976000000000006
-33.111999999999995
-26.522
-21.456999999999997
-17.844
-15.48
-14.187000000000001
-13.659
-13.462
-13.292
-12.972999999999999
-12.425999999999998
-11.692
-10.819
-9.818
-8.712
-7.539
-6.303
-4.962
-3.4589999999999996
-1.7109999999999999
0.365
2.793
5.577000000000001
8.705
12.15
15.899000000000001
19.954
24.314
28.976999999999997
33.95
39.228
44.803000000000004
50.67
56.799
63.148
69.673
76.312
83.01700000000001
89.76
96.516
103.271
110.01
116.70700000000001
123.334
129.876
136.316
142.641
148.842
154.899
160.799
166.53599999999997
172.108
177.52700000000002
182.81099999999998
187.96900000000002
193.01
197.951
202.81799999999998
207.643
212.46900000000002
217.315
222.18
227.058
231.935
236.801
241.65599999999998
246.479
251.24
255.9
260.409
264.719
268.776
272.498
275.778
278.496
280.526
281.768
282.161
281.64799999999997
280.184
277.72
274.204
269.619
263.965
257.251
249.49200000000002
240.702
230.908
220.19
208.66099999999997
196.459
183.72799999999998
170.593
157.154
143.523
129.813
116.146
102.65299999999999
89.427
76.548
64.096
52.153999999999996
40.818000000000005
30.166999999999998
20.232
11.009
2.481
-5.38
-12.589
-19.158
-25.122
-30.53
-35.443000000000005
-39.934
-44.048
-47.821000000000005
-51.297
-54.527
-57.574
-60.493
-63.309
-66.027
-68.649
-71.176
-73.61399999999999
-75.97
-78.226
-80.36
-82.34100000000001
-84.131
-85.715
-87.08200000000001
-88.22
-89.12
-89.76700000000001
-90.152
-90.28399999999999
-90.179
-89.854
-89.325
-88.60799999999999
-87.71700000000001
-86.681
-85.53
-84.29899999999999
-83.022
-81.72800000000001
-80.437
-79.173
-77.954
-76.795
-75.712
-74.71300000000001
-73.79899999999999
-72.975
-72.245
-71.61399999999999
-71.086
-70.66
-70.334
-70.104
-69.968
-69.921
-69.959
-70.079
-70.27600000000001
-70.548
-70.89
-71.29899999999999
-71.774
-72.31
-72.903
-73.547
-74.236
-74.965
-75.726
-76.515
-77.324
-78.14699999999999
-78.98
-79.817
-80.652
-81.483
-82.304
-83.11200000000001
-83.90299999999999
-84.67299999999999
-85.42
-86.14
-86.83200000000001
-87.494
-88.125
-88.723
-89.288
-89.819
-90.318
-90.78299999999999
-91.215
-91.61399999999999
-91.98200000000001
-92.319
-92.626
-92.90299999999999
-93.154
-93.37799999999999
-93.57799999999999
-93.75399999999999
-93.91
-94.045
-94.161
-94.26
-94.34200000000001
-94.40799999999999
-94.458
-94.493
-94.51100000000001
-94.514
-94.501
-94.471
-94.42399999999999
-94.35799999999999
-94.273
-94.16799999999999
-94.041
-93.89
-93.714
-93.51
-93.27600000000001
-93.009
-92.70700000000001
-92.368
-91.98700000000001
-91.564
-91.095
-90.57700000000001
-90.007
-89.384
-88.704
-87.965
-87.165
-86.301
-85.37200000000001
-84.376
-83.314
-82.185
-80.988
-79.725
-78.39699999999999
-77.006
-75.554
-74.042
-72.47399999999999
-70.85300000000001
-69.184
-67.47
-65.718
-63.933
-62.123000000000005
-60.298
-58.468
-56.644
-54.835
-53.053999999999995
-51.31399999999999
-49.628
-48.013000000000005
-46.48
-45.043
-43.713
-42.503
-41.427
-40.498000000000005
-39.73
-39.129
-38.704
-38.461
-38.41
-38.558
-38.911
-39.469
-40.228
-41.184
-42.341
-43.705
-45.281000000000006
-47.071999999999996
-49.076
-51.282
-53.685
-56.276
-59.038000000000004
-61.943000000000005
-64.957
-68.033
-71.127
-74.204
-77.233
-80.196
-83.064
-85.78399999999999
-88.289
-90.505
-92.37700000000001
-93.895
-95.071
-95.90700000000001
-96.37799999999999
-96.508
-96.436
-96.443
-96.829
-97.77
-99.25299999999999
-101.185
-103.65899999999999
-106.83
-110.609
-114.57700000000001
-118.06299999999999
-120.469
-121.696
-122.005
-121.348
-119.495
-116.521
-112.944
-109.917
-108.838
-110.412
-114.682
-121.791
-131.859
-144.57
-158.986
-173.046
-183.81599999999997
-188.593
-185.013
-170.80700000000002
-144.062
-103.103
-46.938
23.807
107.238
199.615
295.42400000000004
390.675
481.889
566.621
645.0930000000001
712.059
758.933
778.544
762.084
710.8910000000001
635.32
543.3530000000001
445.569
346.226
242.825
140.25
43.193000000000005
-41.766000000000005
-105.44
-149.091
-176.108
-190.148
-197.102
-196.514
-188.071
-173.91099999999997
-155.184
-135.153
-116.279
-98.885
-83.617
-71.104
-61.625
-55.247
-51.498000000000005
-49.544
-48.879
-49.263999999999996
-50.254
-50.961000000000006
-50.464
-48.31100000000001
-44.477
-39.3
-33.216
-26.531999999999996
-19.7
-13.457
-8.44
-4.9719999999999995
-3.137
-2.753
-3.528
-5.242000000000001
-7.593
-10.158
-12.635
-14.832
-16.631
-18.014
-18.947
-19.346
-19.159000000000002
-18.378
-16.994
-15.01
-12.436
-9.267000000000001
-5.535
-1.294
3.3960000000000004
8.474
13.899000000000001
19.642
25.682
31.98
38.49
45.157
51.916000000000004
58.729
65.566
72.406
79.243
86.07
92.884
99.694
106.51100000000001
113.338
120.17
126.98899999999999
133.766
140.484
147.135
153.718
160.239
166.69299999999998
173.06400000000002
179.33700000000002
185.497
191.53
197.433
203.197
208.81400000000002
214.291
219.65200000000002
224.925
230.15400000000002
235.363
240.551
245.71400000000003
250.843
255.929
260.97
265.95
270.842
275.616
280.23400000000004
284.645
288.791
292.58299999999997
295.901
298.628
300.645
301.855
302.19599999999997
301.606
300.029
297.416
293.725
288.92400000000004
282.999
275.937
267.723
258.378
247.953
236.541
224.28099999999998
211.30599999999998
197.74599999999998
183.727
169.357
154.752
140.032
125.31200000000001
110.70100000000001
96.318
82.29
68.743
55.818000000000005
43.613
32.185
21.563000000000002
11.737
2.698
-5.562
-13.06
-19.823
-25.881
-31.27
-36.03
-40.201
-43.85
-47.07
-49.953
-52.602
-55.092
-57.465
-59.755
-61.982
-64.156
-66.29
-68.384
-70.428
-72.418
-74.35
-76.219
-78.017
-79.717
-81.27199999999999
-82.641
-83.79
-84.695
-85.352
-85.758
-85.915
-85.836
-85.538
-85.046
-84.387
-83.585
-82.65700000000001
-81.623
-80.508
-79.34
-78.15899999999999
-76.994
-75.869
-74.806
-73.819
-72.92399999999999
-72.131
-71.446
-70.868
-70.396
-70.029
-69.766
-69.611
-69.561
-69.616
-69.76899999999999
-70.017
-70.355
-70.779
-71.285
-71.867
-72.52
-73.23899999999999
-74.01899999999999
-74.858
-75.75
-76.688
-77.668
-78.68
-79.719
-80.777
-81.847
-82.921
-83.992
-85.054
-86.1
-87.124
-88.12299999999999
-89.089
-90.01899999999999
-90.90899999999999
-91.75399999999999
-92.552
-93.301
-93.99799999999999
-94.64
-95.229
-95.76100000000001
-96.238
-96.65899999999999
-97.025
-97.337
-97.59700000000001
-97.805
-97.964
-98.07799999999999
-98.147
-98.176
-98.167
-98.125
-98.052
-97.95299999999999
-97.831
-97.69
-97.535
-97.368
-97.194
-97.016
-96.836
-96.65799999999999
-96.485
-96.318
-96.16
-96.01100000000001
-95.87200000000001
-95.74600000000001
-95.63
-95.527
-95.434
-95.351
-95.275
-95.206
-95.141
-95.07799999999999
-95.014
-94.945
-94.868
-94.78
-94.676
-94.553
-94.40700000000001
-94.23200000000001
-94.023
-93.777
-93.48899999999999
-93.154
-92.76700000000001
-92.324
-91.821
-91.25299999999999
-90.616
-89.90799999999999
-89.125
-88.264
-87.323
-86.3
-85.195
-84.007
-82.736
-81.383
-79.95100000000001
-78.443
-76.86
-75.208
-73.491
-71.714
-69.883
-68.005
-66.086
-64.135
-62.161
-60.173
-58.185
-56.208
-54.255
-52.341
-50.48
-48.68600000000001
-46.975
-45.358999999999995
-43.85
-42.461999999999996
-41.20399999999999
-40.092
-39.138000000000005
-38.354
-37.751
-37.34
-37.129
-37.124
-37.332
-37.751999999999995
-38.382
-39.219
-40.262
-41.52
-42.998999999999995
-44.706
-46.645
-48.816
-51.213
-53.827
-56.641999999999996
-59.629
-62.755
-65.982
-69.27199999999999
-72.595
-75.917
-79.20100000000001
-82.4
-85.45100000000001
-88.286
-90.846
-93.07
-94.913
-96.353
-97.376
-97.999
-98.266
-98.221
-97.928
-97.48
-96.96799999999999
-96.51299999999999
-96.24700000000001
-96.281
-96.792
-98.01799999999999
-100.116
-103.14399999999999
-106.98299999999999
-111.256
-115.555
-119.53299999999999
-122.734
-124.64200000000001
-124.916
-123.454
-120.73700000000001
-117.876
-116.05799999999999
-116.274
-119.29799999999999
-125.67399999999999
-135.546
-148.414
-162.585
-175.176
-182.78099999999998
-181.975
-169.826
-143.804
-101.885
-43.126999999999995
31.78
120.38
218.71200000000002
321.855
424.707
521.741
607.18
675.785
723.25
746.694
745.0419999999999
718.677
669.044
599.102
513.107
416.101
313.73900000000003
211.467
113.943
25.313000000000002
-50.983000000000004
-112.757
-158.993
-189.94099999999997
-207.055
-212.079
-206.757
-193.4
-174.583
-152.717
-129.972
-107.807
-87.008
-68.532
-53.608000000000004
-42.782
-35.951
-32.644
-32.053000000000004
-33.539
-36.721
-40.759
-44.251999999999995
-46.272
-46.426
-44.646
-41.352
-36.972
-31.771
-26.354
-21.649
-18.218
-16.317
-15.995999999999999
-16.934
-18.809
-21.371
-24.185
-26.772
-28.842
-30.211
-30.804000000000002
-30.666999999999998
-29.793000000000003
-28.164
-25.831999999999997
-22.853
-19.282
-15.172
-10.547
-5.4479999999999995
0.042
5.82
11.774000000000001
17.816
23.904
30.003
36.086999999999996
42.132
48.111999999999995
54.019
59.861999999999995
65.641
71.358
77.016
82.616
88.179
93.734
99.307
104.928
110.615
116.369
122.19
128.066
133.97299999999998
139.894
145.809
151.695
157.54
163.328
169.037
174.646
180.12900000000002
185.468
190.653
195.675
200.528
205.22
209.766
214.201
218.565
222.886
227.17
231.41299999999998
235.604
239.739
243.81400000000002
247.826
251.764
255.604
259.315
262.86400000000003
266.20099999999996
269.257
271.932
274.10400000000004
275.64799999999997
276.469
276.498
275.681
273.97
271.311
267.661
262.975
257.222
250.38
242.425
233.351
223.19099999999997
212.00900000000001
199.916
187.058
173.575
159.596
145.243
130.628
115.87200000000001
101.101
86.436
72.008
57.956
44.418
31.541
19.45
8.222000000000001
-2.094
-11.485999999999999
-19.975
-27.58
-34.325
-40.253
-45.4
-49.81
-53.54600000000001
-56.663000000000004
-59.242
-61.388999999999996
-63.211000000000006
-64.821
-66.315
-67.755
-69.192
-70.65899999999999
-72.172
-73.74
-75.368
-77.041
-78.753
-80.501
-82.26799999999999
-84.038
-85.78200000000001
-87.447
-88.986
-90.36
-91.538
-92.507
-93.258
-93.785
-94.09700000000001
-94.208
-94.13600000000001
-93.90700000000001
-93.539
-93.046
-92.446
-91.762
-91.016
-90.244
-89.47200000000001
-88.719
-88.00200000000001
-87.331
-86.715
-86.161
-85.671
-85.23899999999999
-84.86
-84.531
-84.24700000000001
-84.009
-83.814
-83.65799999999999
-83.537
-83.444
-83.37700000000001
-83.333
-83.31
-83.307
-83.32
-83.35
-83.397
-83.462
-83.54700000000001
-83.65
-83.771
-83.90799999999999
-84.06200000000001
-84.23100000000001
-84.415
-84.613
-84.825
-85.05
-85.288
-85.541
-85.809
-86.09299999999999
-86.39299999999999
-86.71
-87.044
-87.397
-87.76899999999999
-88.161
-88.573
-89.005
-89.45700000000001
-89.93
-90.421
-90.929
-91.45200000000001
-91.988
-92.53399999999999
-93.087
-93.64299999999999
-94.199
-94.75200000000001
-95.29700000000001
-95.83
-96.34700000000001
-96.84299999999999
-97.315
-97.757
-98.164
-98.53200000000001
-98.85600000000001
-99.12899999999999
-99.348
-99.506
-99.598
-99.62
-99.56700000000001
-99.43299999999999
-99.214
-98.904
-98.501
-97.99799999999999
-97.39399999999999
-96.68299999999999
-95.86399999999999
-94.935
-93.895
-92.743
-91.479
-90.105
-88.62299999999999
-87.036
-85.346
-83.559
-81.678
-79.71
-77.661
-75.538
-73.348
-71.1
-68.80199999999999
-66.46600000000001
-64.10300000000001
-61.725
-59.346000000000004
-56.98
-54.641999999999996
-52.347
-50.111999999999995
-47.951
-45.88
-43.911
-42.06
-40.34
-38.764
-37.349000000000004
-36.107
-35.051
-34.192
-33.541
-33.105
-32.891
-32.900999999999996
-33.134
-33.59
-34.269
-35.178000000000004
-36.326
-37.718
-39.359
-41.25
-43.385
-45.756
-48.347
-51.131
-54.075
-57.145
-60.302
-63.513999999999996
-66.748
-69.96600000000001
-73.12100000000001
-76.154
-79.0
-81.602
-83.90100000000001
-85.851
-87.428
-88.62
-89.44
-89.931
-90.133
-90.11
-89.949
-89.744
-89.61
-89.68
-90.065
-90.927
-92.485
-94.881
-98.167
-102.24799999999999
-106.79
-111.406
-115.749
-119.369
-121.75200000000001
-122.583
-121.76299999999999
-119.632
-117.13600000000001
-115.333
-115.15
-117.45200000000001
-122.882
-131.57399999999998
-143.093
-156.076
-168.00599999999997
-175.86900000000003
-176.476
-166.74200000000002
-144.129
-106.571
-52.76
17.034000000000002
101.09200000000001
195.513
294.13599999999997
392.13300000000004
485.406
570.974
648.769
713.6410000000001
756.675
770.488
746.7330000000001
686.948
603.117
505.033
402.88599999999997
301.137
195.328
88.148
-12.663
-98.885
-158.488
-189.425
-200.095
-197.967
-191.92700000000002
-186.229
-177.99099999999999
-166.67
-152.905
-137.3
-122.176
-108.555
-96.054
-84.736
-74.997
-66.707
-59.464
-53.396
-48.74100000000001
-45.655
-44.417
-44.501000000000005
-44.54
-43.843999999999994
-42.27
-39.604
-35.908
-31.265
-25.631999999999998
-19.54
-13.969000000000001
-9.474
-6.287999999999999
-4.457
-3.738
-3.938
-4.946000000000001
-6.468
-8.095
-9.548
-10.654000000000002
-11.338
-11.626
-11.507
-10.929
-9.851
-8.266
-6.178999999999999
-3.597
-0.545
2.96
6.8870000000000005
11.187999999999999
15.818
20.749000000000002
25.948
31.394000000000002
37.076
42.961000000000006
49.018
55.211000000000006
61.486000000000004
67.8
74.133
80.465
86.787
93.101
99.402
105.689
111.969
118.23200000000001
124.462
130.641
136.748
142.77200000000002
148.716
154.579
160.362
166.05700000000002
171.65
177.136
182.518
187.793
192.96200000000002
198.032
203.011
207.93099999999998
212.83599999999998
217.757
222.706
227.67700000000002
232.648
237.605
242.541
247.44400000000002
252.293
257.052
261.67
266.10400000000004
270.311
274.224
277.753
280.77
283.14
284.758
285.556
285.485
284.513
282.598
279.694
275.774
270.829
264.86
257.866
249.845
240.795
230.75599999999997
219.822
208.12400000000002
195.80599999999998
182.98
169.735
156.154
142.327
128.355
114.34
100.375
86.542
72.945
59.708999999999996
46.966
34.845
23.428
12.747
2.806
-6.398
-14.857999999999999
-22.558000000000003
-29.497
-35.694
-41.175
-45.965
-50.092
-53.593
-56.537
-59.033
-61.188
-63.103
-64.85300000000001
-66.479
-68.012
-69.485
-70.92399999999999
-72.35
-73.77600000000001
-75.197
-76.61399999999999
-78.03399999999999
-79.457
-80.875
-82.257
-83.545
-84.694
-85.667
-86.43799999999999
-87.0
-87.34700000000001
-87.475
-87.39
-87.10799999999999
-86.648
-86.03399999999999
-85.28299999999999
-84.406
-83.42
-82.34700000000001
-81.214
-80.058
-78.907
-77.783
-76.704
-75.682
-74.727
-73.85
-73.05199999999999
-72.328
-71.675
-71.089
-70.569
-70.117
-69.73
-69.405
-69.138
-68.92399999999999
-68.759
-68.642
-68.569
-68.538
-68.547
-68.594
-68.67699999999999
-68.79899999999999
-68.957
-69.149
-69.375
-69.631
-69.915
-70.22399999999999
-70.557
-70.91
-71.281
-71.669
-72.072
-72.48899999999999
-72.919
-73.361
-73.814
-74.279
-74.755
-75.241
-75.738
-76.245
-76.763
-77.29
-77.827
-78.373
-78.928
-79.491
-80.06
-80.635
-81.214
-81.796
-82.38
-82.963
-83.545
-84.12299999999999
-84.696
-85.262
-85.819
-86.36399999999999
-86.896
-87.412
-87.90899999999999
-88.384
-88.834
-89.256
-89.647
-90.00299999999999
-90.32
-90.596
-90.82700000000001
-91.009
-91.14
-91.214
-91.23
-91.185
-91.073
-90.89399999999999
-90.64299999999999
-90.318
-89.917
-89.43799999999999
-88.87899999999999
-88.238
-87.514
-86.706
-85.81299999999999
-84.835
-83.772
-82.62200000000001
-81.388
-80.069
-78.667
-77.185
-75.625
-73.991
-72.285
-70.513
-68.678
-66.78699999999999
-64.844
-62.856
-60.82899999999999
-58.769
-56.68600000000001
-54.585
-52.477
-50.37
-48.276
-46.208
-44.176
-42.193999999999996
-40.277
-38.437
-36.689
-35.045
-33.516999999999996
-32.117
-30.854
-29.74
-28.787
-28.006
-27.406999999999996
-26.998
-26.787
-26.781
-26.984
-27.399
-28.023000000000003
-28.854
-29.888
-31.125999999999998
-32.577
-34.248000000000005
-36.144
-38.27
-40.621
-43.193999999999996
-45.982
-48.966
-52.118
-55.403999999999996
-58.785
-62.223
-65.689
-69.14399999999999
-72.547
-75.84899999999999
-78.97800000000001
-81.866
-84.45299999999999
-86.681
-88.516
-89.931
-90.91
-91.464
-91.63
-91.459
-91.04
-90.469
-89.84299999999999
-89.291
-88.93
-88.913
-89.476
-90.788
-92.94
-95.9
-99.41
-103.147
-106.834
-110.073
-112.37100000000001
-113.399
-112.95
-111.241
-109.15100000000001
-107.598
-107.456
-109.624
-114.704
-122.98899999999999
-134.362
-147.685
-160.639
-170.523
-174.299
-168.895
-151.75
-120.48700000000001
-73.483
-10.584000000000001
66.814
156.036
253.268
353.99699999999996
453.249
545.375
625.034
687.32
728.165
745.325
737.5310000000001
705.689
653.545
584.1519999999999
500.407
404.98
298.035
185.142
76.994
-16.386
-83.72200000000001
-122.829
-141.475
-147.343
-149.227
-150.421
-147.77100000000002
-140.285
-127.93700000000001
-112.37200000000001
-97.26299999999999
-83.91799999999999
-72.42
-63.066
-55.457
-49.6
-45.568999999999996
-42.72
-40.683
-39.44
-38.711
-38.023
-36.919000000000004
-34.787
-31.33
-26.733
-21.173000000000002
-14.856
-8.221
-1.8259999999999998
3.8569999999999998
8.398
11.583
13.472999999999999
14.183
13.895999999999999
12.921
11.627
10.280999999999999
9.056000000000001
8.027999999999999
7.181
6.522
6.077999999999999
5.855
5.845
6.059
6.534
7.335
8.524
10.121
12.107000000000001
14.437000000000001
17.067
19.979
23.166999999999998
26.63
30.362
34.35
38.582
43.052
47.748000000000005
52.648999999999994
57.715
62.886
68.118
73.383
78.664
83.95700000000001
89.251
94.521
99.75
104.927
110.04299999999999
115.101
120.09
124.99600000000001
129.805
134.502
139.092
143.599
148.039
152.424
156.773
161.102
165.447
169.865
174.389
179.033
183.796
188.658
193.602
198.615
203.68
208.78
213.87900000000002
218.919
223.84599999999998
228.609
233.135
237.347
241.13
244.333
246.838
248.55200000000002
249.407
249.368
248.394
246.447
243.503
239.543
234.563
228.577
221.59
213.606
204.655
194.778
184.06799999999998
172.667
160.691
148.24
135.401
122.242
108.848
95.309
81.70100000000001
68.107
54.607
41.286
28.26
15.642999999999999
3.53
-7.9879999999999995
-18.867
-29.103
-38.673
-47.56100000000001
-55.75
-63.22
-69.977
-76.035
-81.40100000000001
-86.09700000000001
-90.156
-93.631
-96.61399999999999
-99.194
-101.444
-103.444
-105.242
-106.87
-108.37
-109.76799999999999
-111.085
-112.34200000000001
-113.544
-114.693
-115.79700000000001
-116.85799999999999
-117.86200000000001
-118.786
-119.581
-120.209
-120.64399999999999
-120.859
-120.844
-120.59299999999999
-120.104
-119.382
-118.447
-117.316
-116.01100000000001
-114.553
-112.959
-111.251
-109.45700000000001
-107.60600000000001
-105.73700000000001
-103.882
-102.064
-100.306
-98.624
-97.03299999999999
-95.544
-94.162
-92.887
-91.71799999999999
-90.656
-89.699
-88.851
-88.11
-87.473
-86.936
-86.495
-86.14399999999999
-85.882
-85.70299999999999
-85.604
-85.581
-85.62899999999999
-85.74600000000001
-85.928
-86.17200000000001
-86.471
-86.819
-87.211
-87.639
-88.096
-88.57600000000001
-89.072
-89.57600000000001
-90.08200000000001
-90.585
-91.07799999999999
-91.55799999999999
-92.01899999999999
-92.45700000000001
-92.867
-93.24700000000001
-93.59299999999999
-93.90299999999999
-94.17399999999999
-94.404
-94.59200000000001
-94.73700000000001
-94.837
-94.89200000000001
-94.902
-94.866
-94.78399999999999
-94.65899999999999
-94.491
-94.281
-94.03200000000001
-93.74700000000001
-93.428
-93.079
-92.70299999999999
-92.304
-91.885
-91.45200000000001
-91.007
-90.556
-90.101
-89.648
-89.2
-88.76100000000001
-88.334
-87.92299999999999
-87.531
-87.16
-86.81200000000001
-86.491
-86.197
-85.934
-85.70100000000001
-85.501
-85.333
-85.199
-85.098
-85.03
-84.994
-84.988
-85.012
-85.061
-85.134
-85.227
-85.337
-85.458
-85.588
-85.72
-85.85
-85.973
-86.084
-86.177
-86.24600000000001
-86.286
-86.291
-86.256
-86.17399999999999
-86.04
-85.84899999999999
-85.595
-85.275
-84.882
-84.412
-83.863
-83.228
-82.505
-81.691
-80.783
-79.777
-78.673
-77.469
-76.166
-74.762
-73.26
-71.661
-69.969
-68.186
-66.317
-64.367
-62.341
-60.246
-58.089
-55.876999999999995
-53.619
-51.323
-48.998999999999995
-46.659
-44.31399999999999
-41.979
-39.667
-37.391999999999996
-35.17
-33.016999999999996
-30.948
-28.978
-27.119
-25.386
-23.791
-22.348000000000003
-21.07
-19.971
-19.063
-18.358
-17.866
-17.594
-17.551
-17.74
-18.160999999999998
-18.813
-19.695
-20.809
-22.166999999999998
-23.775
-25.639
-27.763
-30.143
-32.773
-35.645
-38.739000000000004
-42.021
-45.457
-49.004
-52.621
-56.28
-59.94
-63.559
-67.085
-70.442
-73.563
-76.38600000000001
-78.85600000000001
-80.938
-82.60799999999999
-83.853
-84.686
-85.152
-85.311
-85.25299999999999
-85.08
-84.885
-84.794
-84.92
-85.411
-86.49799999999999
-88.34700000000001
-91.04299999999999
-94.556
-98.634
-102.965
-107.28399999999999
-111.199
-114.208
-115.96
-116.215
-115.12299999999999
-113.49799999999999
-112.18299999999999
-111.977
-113.727
-118.01299999999999
-125.12700000000001
-135.031
-146.734
-158.062
-166.46200000000002
-169.041
-162.809
-145.286
-114.149
-67.665
-5.477
71.225
159.95600000000002
257.045
358.06199999999995
458.186
551.879
633.6990000000001
698.58
742.29
762.425
757.709
728.842
679.0930000000001
611.396
528.739
434.2
328.727
217.59
110.56700000000001
16.789
-53.508
-97.742
-122.406
-134.204
-140.852
-145.484
-145.457
-139.981
-129.335
-115.31700000000001
-101.45100000000001
-89.105
-78.492
-69.985
-63.325
-58.63
-55.938
-54.477
-53.75
-53.606
-53.653999999999996
-53.411
-52.437
-50.104
-46.152
-40.843
-34.417
-27.163
-19.59
-12.274000000000001
-5.709
-0.36
3.5469999999999997
6.072
7.332000000000001
7.535
7.007000000000001
6.107
5.122999999999999
4.255
3.596
3.148
2.9189999999999996
2.92
3.1519999999999997
3.6289999999999996
4.377
5.445
6.907
8.82
11.205
14.050999999999998
17.317999999999998
20.96
24.939
29.23
33.815
38.685
43.826
49.231
54.89
60.773999999999994
66.84899999999999
73.07
79.377
85.73100000000001
92.11
98.499
104.895
111.3
117.709
124.119
130.528
136.91899999999998
143.268
149.555
155.759
161.868
167.87900000000002
173.79
179.602
185.31099999999998
190.908
196.387
201.748
206.99099999999999
212.11700000000002
217.136
222.065
226.93
231.77200000000002
236.613
241.459
246.313
251.166
256.01099999999997
260.843
265.64799999999997
270.39599999999996
275.055
279.584
283.926
288.02
291.777
295.079
297.813
299.856
301.108
301.502
300.974
299.46299999999997
296.91900000000004
293.29200000000003
288.546
282.673
275.666
267.517
258.26099999999997
247.947
236.667
224.562
211.761
198.40200000000002
184.62
170.521
156.222
141.85
127.52
113.351
99.47200000000001
85.98700000000001
73.005
60.648
48.994
38.095
27.979
18.623
10.015
2.138
-5.037
-11.535
-17.383
-22.631
-27.323
-31.511
-35.277
-38.688
-41.813
-44.739
-47.519
-50.192
-52.787
-55.309
-57.761
-60.148999999999994
-62.468999999999994
-64.71300000000001
-66.88
-68.957
-70.928
-72.777
-74.465
-75.96
-77.24
-78.27600000000001
-79.058
-79.583
-79.848
-79.867
-79.66
-79.242
-78.637
-77.869
-76.955
-75.919
-74.786
-73.584
-72.346
-71.104
-69.881
-68.699
-67.57600000000001
-66.52600000000001
-65.562
-64.691
-63.915
-63.235
-62.652
-62.168
-61.785
-61.503
-61.321000000000005
-61.236000000000004
-61.244
-61.342
-61.525
-61.792
-62.138000000000005
-62.559
-63.052
-63.611999999999995
-64.238
-64.925
-65.67
-66.46600000000001
-67.308
-68.189
-69.10300000000001
-70.045
-71.007
-71.983
-72.96600000000001
-73.95100000000001
-74.931
-75.903
-76.86
-77.798
-78.711
-79.597
-80.45100000000001
-81.27
-82.052
-82.79299999999999
-83.491
-84.146
-84.755
-85.319
-85.836
-86.307
-86.73200000000001
-87.113
-87.45
-87.744
-87.99799999999999
-88.214
-88.39299999999999
-88.539
-88.654
-88.741
-88.803
-88.84299999999999
-88.865
-88.87299999999999
-88.869
-88.85700000000001
-88.84100000000001
-88.823
-88.807
-88.795
-88.79
-88.796
-88.81299999999999
-88.846
-88.89399999999999
-88.961
-89.04700000000001
-89.152
-89.27799999999999
-89.42399999999999
-89.588
-89.77
-89.96799999999999
-90.18
-90.404
-90.635
-90.87200000000001
-91.111
-91.34899999999999
-91.58
-91.802
-92.009
-92.197
-92.361
-92.49600000000001
-92.596
-92.65700000000001
-92.67200000000001
-92.637
-92.54700000000001
-92.396
-92.18
-91.89200000000001
-91.52799999999999
-91.084
-90.555
-89.93700000000001
-89.226
-88.419
-87.51299999999999
-86.508
-85.402
-84.195
-82.887
-81.48100000000001
-79.97800000000001
-78.383
-76.69800000000001
-74.929
-73.081
-71.15899999999999
-69.171
-67.125
-65.027
-62.888000000000005
-60.718999999999994
-58.531000000000006
-56.339
-54.155
-51.994
-49.873000000000005
-47.806999999999995
-45.813
-43.905
-42.097
-40.404
-38.838
-37.413000000000004
-36.146
-35.05
-34.137
-33.42
-32.907
-32.608000000000004
-32.53
-32.676
-33.045
-33.635
-34.446
-35.481
-36.751
-38.266
-40.03
-42.04600000000001
-44.313
-46.821999999999996
-49.56399999999999
-52.521
-55.658
-58.941
-62.328
-65.782
-69.273
-72.76100000000001
-76.20100000000001
-79.53699999999999
-82.693
-85.598
-88.19
-90.411
-92.227
-93.619
-94.575
-95.11200000000001
-95.26899999999999
-95.104
-94.70700000000001
-94.18299999999999
-93.63799999999999
-93.204
-92.99700000000001
-93.182
-94.005
-95.62799999999999
-98.115
-101.384
-105.113
-108.94
-112.587
-115.665
-117.698
-118.40299999999999
-117.67299999999999
-115.87
-114.007
-113.057
-113.84700000000001
-117.109
-123.251
-132.375
-144.122
-157.056
-168.63099999999997
-176.05200000000002
-176.29
-166.623
-145.065
-109.486
-58.386
7.962999999999999
88.061
178.321
272.849
367.605
459.50300000000004
545.672
626.038
695.628
745.46
768.209
755.556
707.5360000000001
633.5459999999999
543.14
447.24699999999996
352.47900000000004
259.004
168.202
82.12299999999999
3.772
-62.208999999999996
-113.616
-150.499
-174.18200000000002
-187.007
-190.887
-187.563
-178.877
-166.607
-152.498
-137.79399999999998
-122.977
-108.306
-94.221
-81.377
-70.51899999999999
-61.968999999999994
-55.57
-51.106
-48.416000000000004
-47.343
-47.497
-47.964
-47.748000000000005
-46.302
-43.449
-39.313
-34.209
-28.405
-22.314
-16.675
-12.095999999999998
-8.876
-7.13
-6.702000000000001
-7.331
-8.807
-10.814
-12.942
-14.92
-16.58
-17.814
-18.608
-18.910999999999998
-18.636
-17.769000000000002
-16.328
-14.322000000000001
-11.777999999999999
-8.702
-5.098
-1.013
3.488
8.343
13.495999999999999
18.923
24.61
30.526
36.631
42.87
49.178000000000004
55.516999999999996
61.861000000000004
68.187
74.48899999999999
80.762
87.005
93.23299999999999
99.465
105.71
111.973
118.24600000000001
124.51100000000001
130.746
136.941
143.091
149.204
155.286
161.329
167.32299999999998
173.248
179.082
184.812
190.43
195.923
201.285
206.52
211.644
216.695
221.72099999999998
226.75
231.791
236.834
241.851
246.829
251.75799999999998
256.627
261.41700000000003
266.089
270.598
274.905
278.968
282.723
286.077
288.902
291.055
292.43
292.957
292.592
291.308
289.067
285.827
281.564
276.27
269.95099999999996
262.60900000000004
254.232
244.81
234.37599999999998
223.015
210.864
198.074
184.76
171.016
156.92
142.554
128.02200000000002
113.431
98.868
84.417
70.176
56.263999999999996
42.84
30.055999999999997
18.014
6.766
-3.6839999999999997
-13.339
-22.186999999999998
-30.209
-37.398
-43.762
-49.333
-54.141999999999996
-58.206
-61.556999999999995
-64.257
-66.402
-68.131
-69.57600000000001
-70.83
-71.959
-72.998
-73.982
-74.953
-75.944
-76.971
-78.036
-79.138
-80.28
-81.47800000000001
-82.734
-84.02600000000001
-85.31200000000001
-86.52600000000001
-87.611
-88.537
-89.28200000000001
-89.837
-90.198
-90.36
-90.329
-90.12700000000001
-89.77799999999999
-89.302
-88.713
-88.02
-87.236
-86.384
-85.494
-84.59899999999999
-83.728
-82.898
-82.12299999999999
-81.416
-80.78399999999999
-80.23100000000001
-79.756
-79.35
-79.006
-78.718
-78.483
-78.29899999999999
-78.164
-78.072
-78.016
-77.991
-77.992
-78.016
-78.059
-78.117
-78.186
-78.265
-78.35300000000001
-78.449
-78.554
-78.665
-78.78
-78.899
-79.01899999999999
-79.14
-79.259
-79.375
-79.486
-79.593
-79.694
-79.79
-79.881
-79.968
-80.051
-80.132
-80.21
-80.289
-80.369
-80.45100000000001
-80.538
-80.62899999999999
-80.727
-80.832
-80.945
-81.068
-81.20100000000001
-81.344
-81.499
-81.666
-81.845
-82.036
-82.23899999999999
-82.454
-82.681
-82.919
-83.169
-83.428
-83.698
-83.977
-84.265
-84.561
-84.86399999999999
-85.17299999999999
-85.486
-85.804
-86.12299999999999
-86.444
-86.764
-87.08200000000001
-87.395
-87.70299999999999
-88.00299999999999
-88.292
-88.57
-88.83200000000001
-89.07700000000001
-89.302
-89.505
-89.68299999999999
-89.834
-89.955
-90.04299999999999
-90.09700000000001
-90.113
-90.09
-90.025
-89.915
-89.758
-89.552
-89.294
-88.98100000000001
-88.611
-88.182
-87.69200000000001
-87.137
-86.515
-85.825
-85.06299999999999
-84.229
-83.319
-82.333
-81.27
-80.128
-78.90899999999999
-77.612
-76.238
-74.789
-73.267
-71.675
-70.016
-68.295
-66.515
-64.682
-62.801
-60.878
-58.92100000000001
-56.93600000000001
-54.931000000000004
-52.917
-50.905
-48.907
-46.933
-44.998999999999995
-43.118
-41.305
-39.573
-37.935
-36.404
-34.992
-33.71
-32.571999999999996
-31.592
-30.781999999999996
-30.154
-29.717
-29.48
-29.451999999999998
-29.636999999999997
-30.037
-30.649
-31.473000000000003
-32.508
-33.763000000000005
-35.246
-36.964
-38.923
-41.123999999999995
-43.56
-46.224
-49.099
-52.158
-55.367
-58.69
-62.088
-65.529
-68.98
-72.402
-75.75
-78.959
-81.959
-84.68799999999999
-87.083
-89.1
-90.719
-91.927
-92.741
-93.21
-93.37100000000001
-93.29700000000001
-93.084
-92.822
-92.635
-92.65799999999999
-92.99600000000001
-93.834
-95.41799999999999
-97.902
-101.344
-105.61
-110.29899999999999
-114.994
-119.336
-122.84299999999999
-124.991
-125.426
-124.06
-121.42200000000001
-118.65299999999999
-116.971
-117.398
-120.73700000000001
-127.59100000000001
-138.113
-151.72899999999998
-166.67700000000002
-180.0
-188.183
-187.755
-175.69
-149.227
-106.30799999999999
-46.042
30.855999999999998
121.7
222.28900000000002
327.561
432.12199999999996
530.072
615.471
682.7130000000001
727.1030000000001
745.806
738.602
707.587
655.5210000000001
585.326
497.841
393.31
275.72700000000003
153.131
38.934
-52.993
-115.831
-151.12
-168.239
-178.058
-186.86900000000003
-195.266
-199.606
-197.237
-188.234
-174.77200000000002
-160.267
-146.043
-131.763
-117.311
-102.53
-88.06
-75.126
-64.045
-54.753
-47.592
-42.736999999999995
-40.146
-39.495
-39.687
-39.523
-38.498000000000005
-36.473
-33.394
-29.426
-24.73
-19.625
-14.894
-11.208
-8.846
-7.872999999999999
-8.126
-9.32
-11.255
-13.672
-16.162
-18.432000000000002
-20.298
-21.62
-22.381999999999998
-22.583000000000002
-22.169
-21.136999999999997
-19.519000000000002
-17.329
-14.600999999999999
-11.38
-7.684
-3.562
0.9279999999999999
5.752000000000001
10.867
16.244
21.862
27.68
33.66
39.762
45.933
52.138000000000005
58.352
64.558
70.756
76.954
83.15700000000001
89.37100000000001
95.609
101.87200000000001
108.15700000000001
114.454
120.734
126.98100000000001
133.181
139.333
145.446
151.519
157.54
163.489
169.34400000000002
175.09
180.722
186.235
191.61900000000003
196.877
202.025
207.09900000000002
212.15200000000002
217.218
222.308
227.416
232.52
237.606
242.667
247.69400000000002
252.666
257.54400000000004
262.279
266.828
271.14599999999996
275.163
278.783
281.87
284.277
285.89
286.633
286.45599999999996
285.327
283.202
280.03700000000003
275.80400000000003
270.501
264.133
256.70799999999997
248.218
238.66099999999997
228.079
216.565
204.266
191.34
177.91
164.076
149.922
135.535
121.022
106.49
92.02600000000001
77.71
63.636
49.919
36.711
24.156999999999996
12.350999999999999
1.338
-8.887
-18.334
-26.993000000000002
-34.853
-41.908
-48.169
-53.668
-58.431999999999995
-62.479
-65.835
-68.558
-70.74
-72.517
-74.016
-75.32600000000001
-76.506
-77.59100000000001
-78.612
-79.609
-80.612
-81.639
-82.691
-83.76899999999999
-84.87799999999999
-86.037
-87.25
-88.5
-89.74799999999999
-90.93
-91.992
-92.904
-93.648
-94.21700000000001
-94.60799999999999
-94.815
-94.848
-94.728
-94.479
-94.12200000000001
-93.67
-93.13
-92.516
-91.84899999999999
-91.15700000000001
-90.47399999999999
-89.82700000000001
-89.23200000000001
-88.705
-88.255
-87.89
-87.615
-87.426
-87.315
-87.273
-87.294
-87.375
-87.51299999999999
-87.706
-87.946
-88.229
-88.546
-88.89399999999999
-89.26799999999999
-89.664
-90.07600000000001
-90.50200000000001
-90.93799999999999
-91.382
-91.834
-92.29299999999999
-92.756
-93.221
-93.686
-94.148
-94.60700000000001
-95.059
-95.50299999999999
-95.93700000000001
-96.361
-96.773
-97.17399999999999
-97.564
-97.943
-98.31200000000001
-98.67299999999999
-99.02600000000001
-99.37299999999999
-99.714
-100.052
-100.387
-100.72
-101.053
-101.38600000000001
-101.72
-102.055
-102.391
-102.729
-103.07
-103.412
-103.755
-104.09899999999999
-104.443
-104.786
-105.12700000000001
-105.463
-105.794
-106.118
-106.432
-106.735
-107.025
-107.29899999999999
-107.554
-107.788
-107.99799999999999
-108.181
-108.333
-108.449
-108.52799999999999
-108.56299999999999
-108.552
-108.492
-108.37700000000001
-108.206
-107.973
-107.675
-107.31
-106.87299999999999
-106.36200000000001
-105.774
-105.10600000000001
-104.355
-103.521
-102.602
-101.59700000000001
-100.506
-99.33
-98.069
-96.725
-95.3
-93.796
-92.21600000000001
-90.564
-88.84299999999999
-87.059
-85.21600000000001
-83.321
-81.382
-79.40899999999999
-77.41199999999999
-75.403
-73.393
-71.396
-69.425
-67.494
-65.616
-63.802
-62.066
-60.417
-58.869
-57.43600000000001
-56.132
-54.968
-53.957
-53.108999999999995
-52.433
-51.94
-51.635
-51.518
-51.591
-51.855
-52.315
-52.985
-53.878
-54.998999999999995
-56.356
-57.949
-59.773
-61.821000000000005
-64.075
-66.501
-69.065
-71.72800000000001
-74.453
-77.21300000000001
-79.975
-82.698
-85.335
-87.818
-90.085
-92.084
-93.76700000000001
-95.101
-96.075
-96.684
-96.95700000000001
-96.95100000000001
-96.73299999999999
-96.396
-96.04
-95.764
-95.686
-95.917
-96.59299999999999
-97.91799999999999
-100.042
-103.03200000000001
-106.84899999999999
-111.244
-115.88600000000001
-120.46799999999999
-124.574
-127.704
-129.498
-129.71200000000002
-128.475
-126.51299999999999
-124.655
-123.766
-124.72
-128.105
-134.243
-143.11700000000002
-153.805
-164.322
-172.231
-174.563
-168.372
-151.39
-121.23299999999999
-75.97
-15.244000000000002
60.108000000000004
147.017
239.767
334.148
426.88199999999995
515.137
598.849
672.441
726.14
751.941
740.47
692.555
618.89
528.003
431.05400000000003
332.884
230.94
130.128
35.118
-47.708
-109.01
-150.232
-175.18400000000003
-187.99
-195.05200000000002
-196.11599999999999
-190.787
-180.635
-166.25900000000001
-150.713
-136.049
-122.086
-109.042
-96.912
-85.79799999999999
-76.421
-68.816
-62.46
-57.386
-53.707
-51.405
-50.303999999999995
-49.538000000000004
-48.108000000000004
-45.643
-42.144
-37.668
-32.416
-26.549
-20.355999999999998
-14.583
-9.884
-6.535
-4.615
-3.958
-4.296
-5.445
-7.143
-9.013
-10.78
-12.265999999999998
-13.357000000000001
-14.045
-14.323
-14.149000000000001
-13.503
-12.362
-10.703
-8.519
-5.813
-2.6010000000000004
1.081
5.192
9.685
14.524000000000001
19.683
25.134
30.854
36.821
43.007
49.385
55.916000000000004
62.543
69.22
75.921
82.631
89.352
96.08200000000001
102.815
109.551
116.289
123.023
129.74
136.418
143.029
149.553
155.97899999999998
162.305
168.53599999999997
174.674
180.71200000000002
186.635
192.435
198.112
203.669
209.11
214.435
219.65
224.771
229.828
234.84599999999998
239.835
244.79
249.69799999999998
254.541
259.295
263.934
268.42900000000003
272.733
276.791
280.546
283.92900000000003
286.873
289.308
291.142
292.279
292.637
292.14799999999997
290.768
288.459
285.183
280.923
275.67900000000003
269.459
262.29900000000004
254.236
245.305
235.572
225.108
213.99400000000003
202.345
190.27700000000002
177.896
165.313
152.629
139.947
127.39
115.056
103.01899999999999
91.351
80.1
69.329
59.111000000000004
49.486999999999995
40.483000000000004
32.116
24.372
17.238
10.706
4.746
-0.682
-5.626
-10.164
-14.352
-18.221
-21.808000000000003
-25.14
-28.255
-31.213
-34.046
-36.774
-39.412
-41.965
-44.438
-46.846000000000004
-49.181000000000004
-51.419
-53.534
-55.479
-57.228
-58.773
-60.106
-61.221000000000004
-62.111999999999995
-62.763000000000005
-63.173
-63.354
-63.317
-63.075
-62.638999999999996
-62.015
-61.223
-60.293
-59.256
-58.146
-56.992
-55.812
-54.623000000000005
-53.443000000000005
-52.284
-51.161
-50.082
-49.048
-48.06100000000001
-47.126999999999995
-46.25
-45.43600000000001
